0,1,2,3,4,5,6,7,8,9,10,11,12,13,14,15,16,17,18,19,20,21,22,23,24,25,26,27,28,29,30,31,32,33,34,35,36,37,38,39,40,41,42,43,44,45,46,47,48,49,50,51,52,53,54,55,56,57,58,59,60,61,62,63,64,65,66,67,68,69,70,71,72,73,74,75,76,77,78,79,80,81,82,83,84,85,86,87,88,89,90,91,92,93,94,95,96,97,98,99,100,101,102,103,104,105,106,107,108,109,110,111,112,113,114,115,116,117,118,119,120,121,122,123,124,125,126,127,128,129,130,131,132,133,134,135,136,137,138,139,140,141,142,143,144,145,146,147,148,149,150,151,152,153,154,155,156,157,158,159,160,161,162,163,164,165,166,167,168,169,170,171,172,173,174,175,176,177,178,179,180,181,182,183,184,185,186,187,188,189,190,191,192,193,194,195,196,197,198,199,200,201,202,203,204,205,206,207,208,209,210,211,212,213,214,215,216,217,218,219,220,221,222,223,224,225,226,227,228,229,230,231,232,233,234,235,236,237,238,239,240,241,242,243,244,245,246,247,248,249,250,251,252,253,254,255,256,257,258,259,260,261,262,263,264,265,266,267,268,269,270,271,272,273,274,275,276,277,278,279,280,281,282,283,284,285,286,287,288,289,290,291,292,293,294,295,296,297,298,299,300,301,302,303,304,305,306,307,308,309,310,311,312,313,314,315,316,317,318,319,320,321,322,323,324,325,326,327,328,329,330,331,332,333,334,335,336,337,338,339,340,341,342,343,344,345,346,347,348,349,350,351,352,353,354,355,356,357,358,359,360,361,362,363,364,365,366,367,368,369,370,371,372,373,374,375,376,377,378,379,380,381,382,383,384,385,386,387,388,389,390,391,392,393,394,395,396,397,398,399,400,401,402,403,404,405,406,407,408,409,410,411,412,413,414,415,416,417,418,419,420,421,422,423,424,425,426,427,428,429,430,431,432,433,434,435,436,437,438,439,440,441,442,443,444,445,446,447,448,449,450,451,452,453,454,455,456,457,458,459,460,461,462,463,464,465,466,467,468,469,470,471,472,473,474,475,476,477,478,479,480,481,482,483,484,485,486,487,488,489,490,491,492,493,494,495,496,497,498,499,500,501,502,503,504,505,506,507,508,509,510,511,512,513,514,515,516,517,518,519,520,521,522,523,524,525,526,527,528,529,530,531,532,533,534,535,536,537,538,539,540,541,542,543,544,545,546,547,548,549,550,551,552,553,554,555,556,557,558,559,560,561,562,563,564,565,566,567,568,569,570,571,572,573,574,575,576,577,578,579,580,581,582,583,584,585,586,587,588,589,590,591,592,593,594,595,596,597,598,599,600,601,602,603,604,605,606,607,608,609,610,611,612,613,614,615,616,617,618,619,620,621,622,623,624,625,626,627,628,629,630,631,632,633,634,635,636,637,638,639,640,641,642,643,644,645,646,647,648,649,650,651,652,653,654,655,656,657,658,659,660,661,662,663,664,665,666,667,668,669,670,671,672,673,674,675,676,677,678,679,680,681,682,683,684,685,686,687,688,689,690,691,692,693,694,695,696,697,698,699,700,701,702,703,704,705,706,707,708,709,710,711,712,713,714,715,716,717,718,719,720,721,722,723,724,725,726,727,728,729,730,731,732,733,734,735,736,737,738,739,740,741,742,743,744,745,746,747,748,749,750,751,752,753,754,755,756,757,758,759,760,761,762,763,764,765,766,767,768,769,770,771,772,773,774,775,776,777,778,779,780,781,782,783,784,785,786,787,788,789,790,791,792,793,794,795,796,797,798,799,800,801,802,803,804,805,806,807,808,809,810,811,812,813,814,815,816,817,818,819,820,821,822,823,824,825,826,827,828,829,830,831,832,833,834,835,836,837,838,839,840,841,842,843,844,845,846,847,848,849,850,851,852,853,854,855,856,857,858,859,860,861,862,863,864,865,866,867,868,869,870,871,872,873,874,875,876,877,878,879,880,881,882,883,884,885,886,887,888,889,890,891,892,893,894,895,896,897,898,899,900,901,902,903,904,905,906,907,908,909,910,911,912,913,914,915,916,917,918,919,920,921,922,923,924,925,926,927,928,929,930,931,932,933,934,935,936,937,938,939,940,941,942,943,944,945,946,947,948,949,950,951,952,953,954,955,956,957,958,959,960,961,962,963,964,965,966,967,968,969,970,971,972,973,974,975,976,977,978,979,980,981,982,983,984,985,986,987,988,989,990,991,992,993,994,995,996,997,998,999,1000,1001,1002,1003,1004,1005,1006,1007,1008,1009,1010,1011,1012,1013,1014,1015,1016,1017,1018,1019,1020,1021,1022,1023,1024,1025,1026,1027,1028,1029,1030,1031,1032,1033,1034,1035,1036,1037,1038,1039,1040,1041,1042,1043,1044,1045,1046,1047,1048,1049,1050,1051,1052,1053,1054,1055,1056,1057,1058,1059,1060,1061,1062,1063,1064,1065,1066,1067,1068,1069,1070,1071,1072,1073,1074,1075,1076,1077,1078,1079,1080,1081,1082,1083,1084,1085,1086,1087,1088,1089,1090,1091,1092,1093,1094,1095,1096,1097,1098,1099,1100,1101,1102,1103,1104,1105,1106,1107,1108,1109,1110,1111,1112,1113,1114,1115,1116,1117,1118,1119,1120,1121,1122,1123,1124,1125,1126,1127,1128,1129,1130,1131,1132,1133,1134,1135,1136,1137,1138,1139,1140,1141,1142,1143,1144,1145,1146,1147,1148,1149,1150,1151,1152,1153,1154,1155,1156,1157,1158,1159,1160,1161,1162,1163,1164,1165,1166,1167,1168,1169,1170,1171,1172,1173,1174,1175,1176,1177,1178,1179,1180,1181,1182,1183,1184,1185,1186,1187,1188,1189,1190,1191,1192,1193,1194,1195,1196,1197,1198,1199,1200,1201,1202,1203,1204,1205,1206,1207,1208,1209,1210,1211,1212,1213,1214,1215,1216,1217,1218,1219,1220,1221,1222,1223,1224,1225,1226,1227,1228,1229,1230,1231,1232,1233,1234,1235,1236,1237,1238,1239,1240,1241,1242,1243,1244,1245,1246,1247,1248,1249,1250,1251,1252,1253,1254,1255,1256,1257,1258,1259,1260,1261,1262,1263,1264,1265,1266,1267,1268,1269,1270,1271,1272,1273,1274,1275,1276,1277,1278,1279,1280,1281,1282,1283,1284,1285,1286,1287,1288,1289,1290,1291,1292,1293,1294,1295,1296,1297,1298,1299,1300,1301,1302,1303,1304,1305,1306,1307,1308,1309,1310,1311,1312,1313,1314,1315,1316,1317,1318,1319,1320,1321,1322,1323,1324,1325,1326,1327,1328,1329,1330,1331,1332,1333,1334,1335,1336,1337,1338,1339,1340,1341,1342,1343,1344,1345,1346,1347,1348,1349,1350,1351,1352,1353,1354,1355,1356,1357,1358,1359,1360,1361,1362,1363,1364,1365,1366,1367,1368,1369,1370,1371,1372,1373,1374,1375,1376,1377,1378,1379,1380,1381,1382,1383,1384,1385,1386,1387,1388,1389,1390,1391,1392,1393,1394,1395,1396,1397,1398,1399,1400,1401,1402,1403,1404,1405,1406,1407,1408,1409,1410,1411,1412,1413,1414,1415,1416,1417,1418,1419,1420,1421,1422,1423,1424,1425,1426,1427,1428,1429,1430,1431,1432,1433,1434,1435,1436,1437,1438,1439,1440,1441,1442,1443,1444,1445,1446,1447,1448,1449,1450,1451,1452,1453,1454,1455,1456,1457,1458,1459,1460,1461,1462,1463,1464,1465,1466,1467,1468,1469,1470,1471,1472,1473,1474,1475,1476,1477,1478,1479,1480,1481,1482,1483,1484,1485,1486,1487,1488,1489,1490,1491,1492,1493,1494,1495,1496,1497,1498,1499
53.69042969,53.74088542,54.02213542,54.26009115,54.34049479,54.55957031,54.65104167,54.68977865,54.68457031,54.58333333,54.23144531,53.87955729,53.44889323,53.16438802,53.09602865,53.03515625,53.16634115,53.19628906,53.30696615,53.40169271,53.48697917,53.50325521,53.55045573,53.65429688,53.66308594,53.79589844,53.8063151,53.8610026,53.94075521,54.05143229,54.11393229,53.97786458,53.52246094,53.1110026,52.77636719,52.66015625,52.65071615,52.88867188,53.09798177,53.27441406,53.43066406,53.64583333,53.6780599,53.83528646,53.96809896,54.07552083,54.16308594,54.19628906,54.484375,54.58300781,54.61328125,54.71875,54.66731771,54.4358724,53.97851563,53.63997396,53.15592448,53.01757813,52.96451823,53.0875651,53.30924479,53.48925781,53.53157552,53.66308594,53.74739583,53.8889974,53.90039063,54.10872396,54.1640625,54.30891927,54.4827474,54.60188802,54.54003906,54.53417969,54.32747396,53.97102865,53.55338542,53.05924479,52.74511719,52.69270833,52.6656901,52.91666667,53.10546875,53.17903646,53.2265625,53.3264974,53.38216146,53.36914063,53.46777344,53.5625,53.62141927,53.78515625,53.79980469,53.88378906,53.98502604,54.04589844,53.89713542,53.68098958,52.96582031,52.68196615,52.43261719,52.3219401,52.46940104,52.68326823,52.92936198,52.98404948,53.06998698,53.16048177,53.22428385,53.3499349,53.51855469,53.71744792,53.8733724,53.86653646,53.94173177,54.11035156,54.16113281,54.2047526,54.26790365,54.10253906,53.78125,53.4391276,53.26464844,53.28157552,53.34016927,53.671875,53.88541667,54.06608073,52.48795573,50.82779948,50.81542969,51.63867188,52.30794271,53.40559896,53.60546875,53.75130208,53.66015625,53.63932292,53.52571615,53.58951823,53.30826823,52.859375,52.41080729,52.14583333,51.97233073,51.68033854,51.74804688,51.92578125,52.09960938,52.06315104,52.06770833,52.17903646,52.2093099,52.31738281,52.29231771,52.2672526,51.99544271,51.93717448,51.92480469,51.8531901,51.67643229,51.61751302,51.38964844,51.07096354,50.79427083,50.62890625,50.63509115,50.85058594,51.05501302,51.31575521,51.54720052,51.67057292,51.84440104,51.9391276,51.97298177,52.05013021,52.17643229,52.17838542,52.25390625,52.3671875,52.43684896,52.76595052,52.84016927,52.7750651,52.43945313,52.1328125,52.13964844,52.19661458,52.36035156,52.54101563,52.59765625,52.90201823,53.21516927,53.30110677,53.42578125,53.53385417,53.57161458,53.68326823,53.71061198,53.7718099,53.71614583,53.74251302,53.7014974,53.71321615,53.58268229,53.51334635,53.12076823,52.60449219,52.26985677,52.15852865,52.07259115,51.93164063,52.04589844,52.26660156,52.36197917,52.71679688,52.75390625,52.89615885,53.05924479,53.1640625,53.21028646,53.28938802,53.24609375,53.34733073,53.27636719,53.30403646,53.31022135,53.25488281,52.90266927,52.34309896,52.05371094,51.9375,51.78515625,51.79459635,51.93684896,52.24804688,52.39485677,52.48372396,52.796875,52.89973958,53.00227865,53.17675781,53.17773438,53.25130208,53.25651042,53.2561849,53.34895833,53.4000651,53.421875,53.35839844,53.03580729,52.55924479,52.22102865,52.10872396,51.88834635,51.97363281,52.13053385,52.37532552,52.4547526,52.74153646,52.75390625,52.84830729,52.94661458,53.02311198,53.015625,53.13020833,53.10091146,53.19433594,53.2047526,53.26269531,53.30240885,53.29134115,52.89160156,52.47884115,52.25292969,52.16992188,52.01171875,52.09830729,52.31640625,52.52050781,52.7750651,52.75716146,52.88867188,52.99804688,53.0625,53.09277344,53.1171875,53.21907552,53.2594401,53.37369792,53.34016927,53.35546875,53.40299479,53.11523438,52.65559896,52.34309896,52.14876302,51.86490885,51.84667969,51.95084635,52.10449219,52.25325521,52.34309896,52.43977865,52.76888021,52.91992188,52.97786458,53.04264323,52.96679688,53.05078125,53.01074219,53.06054688,53.140625,53.09277344,52.94498698,52.52897135,52.14095052,51.89746094,51.54003906,51.39615885,51.50911458,51.68457031,51.84602865,51.95442708,51.96028646,52.07714844,52.14095052,52.33463542,52.45703125,52.5843099,52.84602865,52.98567708,53.00878906,53.015625,53.07128906,53.13671875,53.10514323,52.69205729,52.18880208,51.96516927,51.62272135,51.66048177,51.78027344,51.98339844,52.26334635,52.44726563,52.52701823,52.87109375,52.99251302,53.17154948,53.26171875,53.39908854,53.38834635,53.57389323,53.56054688,53.63476563,53.70084635,53.70865885,53.61653646,53.25455729,52.71549479,52.32421875,52.14908854,52.09798177,52.00520833,52.25553385,52.39648438,52.8264974,52.81998698,52.99707031,53.1015625,53.23404948,53.25,53.4124349,53.43261719,53.59342448,53.59765625,53.671875,53.72623698,53.69270833,53.43164063,53.01790365,52.49641927,52.14713542,52.00585938,51.81022135,51.95182292,52.13085938,52.20019531,52.28776042,52.54264323,52.69010417,52.74479167,52.81803385,52.953125,53.01529948,53.05891927,53.17220052,53.13834635,53.25,53.28385417,53.22786458,52.85351563,52.40332031,51.92480469,51.61686198,51.29557292,51.33919271,51.46061198,51.67089844,51.78059896,51.92089844,51.92415365,51.99283854,52.10123698,52.25748698,52.29492188,52.39355469,52.69270833,52.75195313,52.76757813,52.94466146,52.94596354,52.92220052,52.47428385,51.95410156,51.44205729,51.27994792,51.18294271,51.21647135,51.34505208,51.48828125,51.6188151,51.72233073,51.75553385,51.89485677,51.93619792,52.12434896,52.203125,52.24283854,52.35026042,52.46191406,52.73177083,52.8844401,52.80013021,52.88053385,52.60026042,52.05403646,51.59049479,51.30013021,51.25097656,51.25683594,51.44401042,51.65625,51.75260417,51.8375651,51.88085938,51.93424479,51.98079427,52.18001302,52.24316406,52.34407552,52.36914063,52.69173177,52.70247396,52.77376302,52.82845052,52.78645833,52.34895833,51.80891927,51.22460938,51.07714844,50.94726563,50.99121094,51.22526042,51.44759115,51.56640625,51.69075521,51.8063151,51.88574219,51.93945313,52.10351563,52.17936198,52.265625,52.37760417,52.46223958,52.73958333,52.79882813,52.84309896,52.68847656,52.1735026,51.68098958,51.09700521,51.02734375,50.82519531,50.79361979,50.99804688,51.10839844,51.23014323,51.21972656,51.26757813,51.39778646,51.46744792,51.52050781,51.51139323,51.63151042,51.68782552,51.74251302,51.65820313,51.81315104,51.87076823,51.76041667,51.37630208,50.97851563,50.6656901,50.61523438,50.56477865,50.35970052,50.52734375,50.81477865,51.0703125,51.18554688,51.22916667,51.34505208,51.40885417,51.49804688,51.5703125,51.59407552,51.61197917,51.63378906,51.64908854,51.65690104,51.72298177,51.61686198,51.25097656,50.74674479,50.42089844,50.19791667,49.97428385,49.91503906,50.02929688,50.32747396,50.53808594,50.63541667,50.93098958,51.07096354,51.13509115,51.23925781,51.34765625,51.359375,51.44759115,51.57324219,51.57552083,51.7438151,51.72330729,51.73860677,51.25520833,50.78580729,50.46516927,50.3063151,50.06640625,50.10123698,50.18294271,50.3063151,50.26041667,50.37304688,50.34765625,50.48404948,50.77441406,50.94661458,51.06315104,51.1953125,51.32747396,51.41861979,51.55436198,51.60091146,51.61132813,51.53515625,51.19791667,50.77571615,50.46158854,50.30566406,49.9156901,49.93489583,49.97428385,50.14257813,50.203125,50.2516276,50.25878906,50.33105469,50.48665365,50.69759115,50.92936198,50.97330729,51.00976563,51.22135417,51.33365885,51.37858073,51.484375,51.53385417,51.2265625,50.75878906,50.49348958,50.16927083,50.1624349,50.24544271,50.39778646,50.68391927,50.79329427,51.05371094,51.1702474,51.37597656,51.32356771,51.4983724,51.54036458,51.5764974,51.66145833,51.76269531,51.81119792,51.80533854,51.82128906,51.86328125,51.5390625,51.03548177,50.63574219,50.35351563,50.02408854,50.01595052,50.12565104,50.33561198,50.38313802,50.49609375,50.73339844,50.83658854,50.86295573,51.04199219,51.11523438,51.23046875,51.31282552,51.36523438,51.46028646,51.5953776,51.63053385,51.70247396,51.5016276,51.03645833,50.75553385,50.51367188,50.21972656,50.26171875,50.40559896,50.65625,50.85026042,51.26302083,51.38932292,51.51627604,51.59602865,51.71419271,51.78873698,51.89127604,51.9905599,52.0452474,52.13411458,52.25488281,52.31054688,52.43847656,52.30110677,51.80924479,51.08561198,50.95963542,50.75358073,50.77701823,50.875,51.0921224,51.20345052,51.20800781,51.24934896,51.37076823,51.48763021,51.62858073,51.72298177,51.83854167,51.90332031,51.96516927,52.01106771,52.14388021,52.1858724,52.18098958,52.06510417,51.53222656,50.92936198,50.7093099,50.66373698,50.60091146,50.75553385,51.04817708,51.24674479,51.39388021,51.47005208,51.56315104,51.66373698,51.81054688,51.83528646,51.91861979,52.06347656,52.15559896,52.22558594,52.59472656,52.63736979,52.77376302,52.62174479,52.15983073,51.62988281,51.17513021,50.98535156,51.03710938,51.17480469,51.36393229,51.59765625,51.65136719,51.7639974,51.93098958,52.04557292,52.17773438,52.29720052,52.65755208,52.77897135,52.8811849,52.80891927,52.95540365,52.94173177,53.02213542,52.80891927,52.30208333,51.78222656,51.4156901,51.07584635,51.1858724,51.32259115,51.47558594,51.72298177,51.68977865,51.76432292,51.79329427,51.85253906,51.97233073,51.97916667,52.09342448,52.26432292,52.39941406,52.39583333,52.36165365,52.34765625,52.28157552,52.08072917,51.54654948,50.82356771,50.53613281,50.31510417,50.32259115,50.35514323,50.55696615,50.6969401,50.74707031,50.71582031,50.79329427,50.75325521,50.93782552,50.95377604,51.07421875,51.1500651,51.34635417,51.40852865,51.42382813,51.47623698,51.58138021,51.42317708,51.05338542,50.55696615,50.3141276,50.26269531,50.09505208,50.21158854,50.52832031,50.94433594,51.10709635,51.17545573,51.26595052,51.39095052,51.50878906,51.62467448,51.66601563,51.7109375,51.75292969,51.77278646,51.796875,51.80240885,51.81901042,51.59016927,51.14973958,50.68066406,50.30696615,50.20052083,49.98307292,50.0797526,50.34570313,51.30696615,51.54980469,51.58723958,51.70410156,51.8811849,51.97591146,52.11425781,52.20084635,52.37369792,52.54817708,52.63411458,52.7047526,52.80891927,52.90104167,52.7281901,52.21842448,51.72428385,51.51074219,51.35286458,51.33886719,51.26692708,51.3688151,51.46516927,51.45279948,51.46875,51.4938151,51.5078125,51.53385417,51.59342448,51.73697917,51.79654948,51.8968099,51.87272135,51.95703125,52.03808594,52.08398438,51.73404948,51.28027344,50.91308594,50.73893229,50.43684896,50.44466146,50.56673177,50.828125,50.99121094,51.02050781,51.09277344,51.45410156,51.57877604,51.67317708,51.68977865,51.78450521,51.84114583,51.9000651,51.92220052,51.97395833,51.98046875,51.95670573,51.70247396,51.2281901,50.84863281,50.46809896,50.36490885,50.421875,50.33007813,50.57324219,50.84798177,50.97428385,51.03059896,51.25748698,51.53678385,51.68717448,51.75260417,51.87532552,51.94596354,52.00878906,52.07454427,52.26269531,52.38834635,52.4765625,52.30013021,51.88541667,51.52408854,51.29329427,51.33886719,51.34667969,51.2578125,51.47102865,51.84082031,52.00195313,52.01432292,52.16536458,52.21126302,52.40690104,52.59570313,52.73209635,52.78613281,52.90852865,53.015625,53.1578776,53.27278646,53.45345052,53.17545573,52.78808594,52.22200521,52.09570313,52.015625,52.05891927,52.17285156,52.2578125,52.39615885,52.38736979,52.33398438,52.3889974,52.41015625,52.61393229,52.6640625,52.74446615,52.74902344,52.80208333,52.79980469,52.76269531,52.70833333,52.68945313,52.20117188,51.73860677,51.48990885,51.31152344,51.17513021,51.07226563,51.06640625,51.13216146,51.296875,51.56445313,51.55208333,51.63313802,51.74446615,51.88704427,51.87272135,51.9860026,52.04329427,52.07552083,52.14973958,52.24283854,52.2672526,52.17317708,51.65136719,51.16080729,50.86783854,50.45670573,50.29947917,50.17382813,50.3766276,50.51009115,50.74186198,50.72591146,50.79589844,50.85058594,50.93522135,51.0563151,51.14485677,51.21875,51.28808594,51.72753906,51.86653646,51.92447917,51.97591146,51.85221354,51.51497396,51.10709635,50.87141927,50.66829427,50.48502604,50.62760417,51.00195313,51.23893229,51.32291667,51.63085938,51.7125651,51.80891927,51.8421224,51.93359375,52.03678385,52.05924479,52.07389323,52.20182292,52.17447917,52.21028646,52.17480469,51.88964844,51.41764323,50.91048177,50.76529948,50.36360677,50.21940104,50.25878906,50.45442708,50.55664063,50.77604167,50.7890625,50.80371094,51.00032552,51.16210938,51.25976563,51.2561849,51.56738281,51.55371094,51.67285156,51.67936198,51.73893229,51.71679688,51.50683594,51.15299479,50.84114583,50.39257813,50.27083333,50.27213542,50.47363281,50.73111979,51.05208333,51.22005208,51.40983073,51.48795573,51.9703776,52.11979167,52.24283854,52.27441406,52.2639974,52.26692708,52.37695313,52.43619792,52.6077474,52.59635417,52.22233073,51.69401042,51.31835938,51.11914063,50.83072917,50.85514323,51.10546875,51.28613281,51.71061198,51.70410156,51.71484375,51.72916667,51.89615885,51.93554688,52.11979167,52.19075521,52.25032552,52.33138021,52.39778646,52.48502604,52.62955729,52.52050781,52.17936198,51.69856771,51.28580729,51.03059896,50.84049479,50.80598958,51.09407552,51.3141276,51.43164063,51.6640625,51.80664063,51.90852865,51.97949219,51.98958333,52.0921224,52.1468099,52.14615885,52.15755208,52.18098958,52.18359375,52.30143229,52.06119792,51.64648438,51.23697917,51.04134115,50.78222656,50.8577474,51.02376302,51.24967448,51.46386719,51.73665365,51.70996094,51.81119792,51.7874349,51.76334635,51.71614583,51.76497396,51.78548177,51.87011719,51.96809896,52.03710938,52.07454427,51.97558594,51.56770833,51.00358073,50.47005208,49.99348958,49.57128906,49.63509115,49.50260417,49.79101563,50.04654948,50.16601563,50.265625,50.4625651,50.63151042,50.99283854,51.05175781,51.24251302,51.34635417,51.45800781,51.75260417,51.78938802,51.89453125,51.68326823,51.13476563,50.59928385,50.05045573,49.67643229,49.42317708,49.54361979,49.75260417,49.93717448,50.31217448,50.515625,50.65429688,50.86393229,51.22102865,51.39615885,51.39941406,51.74902344,51.79589844,51.94628906,51.9375,52.06380208,52.09179688,51.79947917,51.25716146,50.75585938,50.26204427,49.92154948,49.8577474,49.96582031,50.07682292,50.24088542,50.2639974,50.44954427,50.53385417,50.65820313,50.87597656,51.06966146,51.09440104,51.16829427,51.20963542,51.23860677,51.60579427,51.69563802,51.63346354,51.20605469,50.68554688,50.14941406,49.72005208,49.68717448,49.5921224,49.76106771,49.86914063,50.10123698,50.11197917,50.24804688,50.30045573,50.32910156,50.35351563,50.4313151,50.5641276,50.77018229,50.76204427,50.90527344,51.00651042,51.1266276,50.9046224,50.52018229,49.97233073,49.47851563,49.10970052,48.99674479,49.11393229,48.8219401,48.88704427,49.3610026,49.3264974,49.33040365,49.38769531,49.5719401,49.54947917,49.71321615,49.75325521,49.81054688,49.85709635,50.14550781,50.17415365,50.15494792,49.76334635,49.36490885,48.78515625,48.27441406,48.24739583,48.42317708,48.54882813,48.78417969,49.02539063,49.05013021,49.58203125,49.66601563,49.83789063,49.94075521,50.04915365,50.25065104,50.15657552,50.14322917,50.15917969,50.28222656,50.18294271,49.93164063,49.37890625,48.86490885,48.24739583,48.16796875,48.14648438,48.03645833,48.19108073,48.39615885,48.6796875,48.84928385,48.90527344,48.9921875,49.06542969,49.19238281,49.62565104,49.77766927,49.68457031,49.68164063,49.62597656,49.70833333,49.63867188,49.35123698,48.86165365,48.40234375,47.77213542,47.54134115,47.36783854,47.46679688,47.41894531,47.78320313,47.81575521,47.87695313,48.13411458,48.30143229,48.34960938,48.71223958,48.78710938,48.79101563,48.67220052,48.83365885,48.87011719,48.93033854,48.83984375,48.54036458,48.0563151,47.66731771,47.38802083,46.93326823,46.50846354,46.29003906,46.07877604,46.06510417,46.07714844,46.02799479,46.03222656,45.97851563,45.9703776,45.88736979,45.828125,45.77701823,45.6953125,45.64388021,45.5875651,45.11230469,45.04003906,44.6233724,44.07617188,43.59407552,43.09309896,42.83138021,42.44498698,42.66634115,42.80371094,42.99869792,43.55110677,43.69628906,43.83300781,44.04654948,44.2578125,44.41503906,44.75813802,44.86946615,44.91015625,45.02994792,45.22721354,45.20996094,44.98730469,44.4781901,43.86979167,43.58919271,43.32845052,43.28678385,43.54394531,43.28320313,43.79394531,43.95345052,44.11197917,44.36067708,44.64941406,45.16666667,45.52083333,45.95865885,46.24283854,47.28483073,47.77897135,45.21158854,41.24934896,39.43001302,37.60579427,37.91276042,39.12760417,40.6780599,42.57747396,43.53385417,44.36914063,45.28873698,45.63639323,46.04785156,46.67252604,47.0078125,47.68229167,48.47851563,49.11751302,49.65136719,50.04329427,50.58333333,50.66373698,50.55533854,50.51106771,50.33854167,49.99414063,49.39550781,49.07714844,48.65983073,48.59635417,48.80371094,49.09472656,49.2639974,49.35091146,49.84928385,49.87402344,49.99739583,50.05110677,50.18652344,50.1624349,50.42447917,50.45865885,50.49251302,50.57421875,50.609375,50.72851563,50.35742188,49.88932292,49.37011719,48.98046875,48.95117188,48.63313802,48.84895833,49.48339844,49.52897135,49.54231771,49.66080729,49.68684896,49.74121094,49.88867188,50.11979167,50.1389974,50.1110026,49.79654948,49.56022135,49.19921875,49.17936198,49.28157552,49.42610677,49.51920573,49.47721354,49.45800781,49.60611979,49.65234375,49.93261719,49.99641927,50.14453125,50.23339844,50.47395833,50.54980469,50.87630208,50.96191406,51.00292969,50.99967448,51.04264323,50.96549479,50.44042969,49.73730469,49.12402344,48.70052083,48.64811198,48.3453776,48.66894531,48.83723958,48.9078776,49.32910156,49.5094401,49.59407552,49.63867188,49.7405599,49.74804688,49.86751302,49.91276042,45.9625651,42.14485677,39.85579427,40.38411458,41.57682292,42.70800781,43.46842448,43.11946615,42.63639323,41.66699219,41.04361979,40.20084635,39.30371094,38.58235677,37.81380208,37.45507813,37.23372396,37.27799479,37.34277344,37.53385417,37.6969401,37.89941406,38.0406901,38.14518229,38.13085938,37.89029948,37.52604167,37.25683594,36.61979167,36.55338542,36.63346354,37.0485026,37.67057292,39.03352865,41.49088542,43.39095052,45.26529948,46.58333333,47.09602865,47.27408854,46.99348958,47.11523438,48.46386719,50.34309896,50.94042969,51.55957031,51.11751302,50.60351563,49.85091146,49.55110677,48.9313151,48.74511719,48.73697917,48.92936198,49.16927083,49.27604167,49.33821615,49.45084635
49.15397135,49.09082031,49.69824219,49.75423177,49.37174479,48.77734375,48.00553385,47.87011719,47.53255208,47.66210938,47.78027344,47.92317708,47.90917969,48.05566406,48.06347656,48.15592448,48.04980469,48.19270833,48.24869792,48.29557292,48.29915365,48.66764323,48.67513021,48.85286458,48.84733073,48.80566406,48.34472656,48.04980469,47.54654948,47.48632813,47.31119792,47.50488281,47.62467448,47.79947917,48.10188802,48.2171224,48.26106771,48.31998698,48.4609375,48.63248698,48.88509115,48.93294271,48.9983724,49.05143229,49.07714844,49.12434896,49.1188151,49.32942708,48.89290365,48.2093099,47.97916667,47.71028646,47.73046875,47.87825521,48.15429688,48.32584635,48.36621094,48.58919271,48.5719401,48.63085938,48.64355469,48.72623698,48.72265625,48.65364583,48.65592448,48.67871094,48.66438802,48.71061198,48.6735026,48.31901042,47.79589844,47.32714844,47.12565104,46.9781901,47.02311198,47.0390625,47.11979167,47.19759115,47.24251302,47.26627604,47.36979167,47.53417969,47.53450521,47.61035156,47.67317708,47.72981771,47.83365885,47.90625,47.8531901,48.00292969,47.84407552,47.46582031,47.06705729,46.8766276,46.58919271,46.56966146,46.40950521,46.55078125,46.93782552,47.01367188,47.07128906,47.24674479,47.32324219,47.63574219,47.73209635,47.84895833,48.02213542,48.2047526,48.31315104,48.62565104,48.62369792,48.66927083,48.52050781,48.02604167,47.72623698,47.46126302,47.36751302,47.31933594,47.53971354,47.70735677,47.95214844,48.1311849,48.23307292,48.33333333,48.39290365,48.66145833,48.75716146,48.828125,48.83951823,48.92773438,48.95540365,49.01009115,49.10123698,49.54231771,49.2421875,48.79492188,48.02832031,47.82942708,47.58528646,47.609375,47.70052083,47.86230469,47.9156901,47.90234375,48.00716146,48.02701823,48.06835938,48.1422526,48.1702474,48.15332031,48.1188151,48.1640625,48.14811198,48.17480469,48.17057292,48.18066406,47.90266927,47.64322917,47.36035156,47.15559896,47.20019531,47.22265625,47.37239583,47.55371094,47.68554688,47.97233073,48.11197917,48.1953125,48.28483073,48.453125,48.5452474,48.78580729,48.82942708,48.84505208,48.73535156,48.78483073,48.82226563,48.61393229,48.12044271,47.73502604,47.33854167,47.30859375,47.23242188,47.19108073,47.29394531,47.54166667,47.68977865,47.76334635,47.83138021,47.97981771,48.01985677,48.06705729,48.18229167,48.2438151,48.34375,48.60644531,48.56054688,48.63704427,48.59733073,48.49674479,48.08886719,47.79199219,47.50911458,47.54980469,47.44205729,47.80045573,47.98079427,48.15950521,48.16015625,48.30175781,48.26855469,48.36197917,48.65690104,48.74023438,48.79654948,48.81608073,48.78190104,48.84179688,48.85449219,48.95345052,48.93847656,49.0921224,48.78320313,48.07128906,47.89322917,47.71354167,47.8343099,47.9296875,48.09667969,48.2561849,48.47298177,48.62044271,48.6969401,48.83365885,48.7734375,48.97005208,49.50065104,49.60514323,49.60872396,49.71907552,49.7360026,49.84407552,49.96386719,49.6796875,49.29817708,48.85742188,48.25325521,48.24967448,48.30501302,48.49186198,48.6640625,48.64322917,49.04980469,49.18391927,49.23697917,49.28320313,49.33658854,49.4827474,49.52213542,49.50748698,49.42415365,49.48925781,49.46777344,49.4609375,49.25651042,48.80696615,48.4938151,47.83626302,47.74023438,47.54622396,47.65885417,47.88411458,48.00651042,48.17903646,48.22070313,48.30598958,48.37955729,48.48502604,48.52115885,48.61360677,48.68261719,48.8577474,49.29134115,49.37923177,49.48307292,49.50130208,49.22102865,48.87141927,48.53352865,47.98014323,47.9140625,47.95605469,48.00130208,47.98470052,48.28092448,48.35839844,48.34472656,48.33984375,48.3844401,48.35253906,48.44986979,48.40950521,48.45605469,48.47591146,48.49121094,48.62825521,49.10123698,49.14876302,48.99316406,48.57421875,47.9593099,47.87304688,47.83170573,47.69921875,47.96061198,48.11621094,48.38997396,48.41438802,48.484375,48.56608073,48.56966146,48.76757813,49.40201823,49.55859375,49.54036458,49.49707031,49.5452474,49.5563151,49.57128906,49.65559896,49.26595052,48.9514974,48.54915365,47.99739583,47.98209635,48.03938802,48.13378906,48.2516276,48.28841146,48.32356771,48.40657552,48.4140625,48.91308594,49.02408854,49.01822917,49.04492188,49.08300781,49.13509115,49.20214844,49.25195313,49.21744792,49.19010417,48.84733073,48.61490885,48.47363281,47.9781901,47.92154948,47.97200521,48.22233073,48.3343099,48.42545573,48.5094401,48.97949219,49.07519531,49.08170573,49.21484375,49.15657552,49.12532552,49.07552083,49.17154948,49.15299479,49.16471354,49.19433594,49.046875,48.70572917,48.32421875,47.69498698,47.58235677,47.30143229,47.40397135,47.53450521,47.64648438,47.66634115,47.94986979,47.99544271,48.10188802,48.16666667,48.2874349,48.34342448,48.44140625,48.40397135,48.52994792,48.57942708,48.9547526,49.00651042,48.88671875,48.64420573,47.9140625,47.69498698,47.94335938,48.09928385,47.68066406,47.61230469,47.61035156,47.77897135,47.72200521,47.89029948,47.91992188,48.07389323,48.19986979,48.33496094,48.45182292,48.51204427,48.47005208,48.51822917,48.6188151,48.61523438,48.51888021,48.61523438,47.90917969,47.91992188,47.70865885,47.78938802,47.92317708,48.05696615,48.39257813,48.47591146,48.60709635,48.71386719,48.84407552,49.29459635,49.46582031,49.48990885,49.58203125,49.58398438,49.609375,49.76464844,49.79264323,49.72460938,49.51236979,49.0686849,48.60644531,48.31217448,47.85188802,47.88216146,48.1624349,48.37207031,48.40983073,48.30403646,48.39355469,48.51985677,48.74414063,49.28157552,49.42447917,49.43359375,49.60970052,49.57259115,49.61588542,49.6500651,49.78352865,49.89778646,49.87044271,49.53776042,49.33138021,49.05729167,49.07291667,48.99707031,49.07324219,49.00227865,49.08365885,49.09570313,49.22460938,49.34765625,49.52050781,49.54036458,49.5875651,49.86523438,49.83723958,49.77213542,49.84505208,49.81477865,49.89941406,49.74707031,49.42936198,49.04394531,48.74544271,48.60709635,48.21321615,48.22298177,48.39290365,48.59928385,49.2360026,49.31608073,49.43489583,49.62044271,49.67871094,49.96744792,50.13476563,50.2561849,50.40722656,50.49251302,50.87760417,50.85286458,50.8828125,50.68001302,50.40429688,50.13476563,49.7952474,49.78255208,49.7171224,49.80957031,50.08463542,50.21223958,50.22167969,50.2639974,50.39713542,50.42773438,50.72363281,50.72916667,50.78841146,50.76106771,50.87988281,50.92773438,50.89453125,50.91829427,50.92447917,50.52994792,50.19628906,50.0094401,49.75292969,49.74804688,49.8264974,49.8889974,50.08919271,50.14160156,50.09016927,50.05696615,50.14941406,50.20670573,50.24348958,50.30696615,50.33463542,50.56673177,50.5719401,50.56477865,50.63769531,50.56542969,50.25260417,49.91341146,49.50390625,49.38248698,49.16536458,49.11360677,49.20052083,49.3515625,49.47005208,49.56119792,49.54264323,49.65983073,49.98763021,50.09733073,50.24023438,50.40494792,50.52799479,50.65397135,50.76041667,50.7639974,50.86393229,50.7421875,50.37630208,49.95996094,49.67643229,49.61425781,49.36783854,49.40234375,49.46647135,49.60221354,49.74088542,49.97233073,50.03320313,50.02701823,50.08235677,50.12858073,50.19042969,50.19238281,50.26302083,50.22428385,50.30989583,50.2874349,50.32096354,50.26432292,49.92708333,49.55436198,49.47200521,49.22298177,49.19238281,49.26595052,49.48567708,49.62695313,49.63802083,49.55891927,49.88085938,49.93424479,50.03971354,50.07259115,50.13802083,50.14811198,50.19498698,50.16894531,50.18554688,50.2125651,49.94759115,49.61816406,49.2985026,48.95507813,48.88476563,48.83040365,48.39778646,48.50553385,48.63704427,48.6858724,49.13183594,49.22688802,49.30826823,49.37695313,49.54785156,49.66894531,49.68684896,49.76041667,50.01236979,50.06901042,50.1891276,50.12727865,49.91080729,49.7093099,49.52832031,49.32096354,49.30957031,49.19010417,49.21940104,49.36621094,49.46223958,49.54166667,49.59960938,49.62923177,49.64127604,49.62141927,49.96289063,50.03125,50.02050781,50.07910156,50.14615885,50.12044271,50.13020833,50.05533854,49.78678385,49.6266276,49.47949219,49.26757813,49.27734375,49.2561849,49.45996094,49.5719401,49.63346354,49.63671875,49.90917969,50.07096354,50.16438802,50.12434896,50.26139323,50.28450521,50.33821615,50.31315104,50.53678385,50.55338542,50.53027344,50.23209635,49.90494792,49.4860026,49.36848958,49.15755208,49.19303385,49.30566406,49.51139323,49.60546875,49.74967448,49.95800781,50.0641276,50.21940104,50.3515625,50.52799479,50.890625,51.06315104,51.19108073,51.35351563,51.7890625,51.94401042,52.00292969,51.68326823,51.3375651,51.24934896,51.04134115,51.05436198,51.24316406,51.63183594,51.97298177,52.07910156,52.19824219,52.16145833,52.29459635,52.38053385,52.60807292,52.74348958,52.79654948,52.76009115,52.90885417,52.84700521,52.97786458,53.21451823,53.03092448,52.50651042,51.84375,51.55826823,51.41015625,51.3203125,51.47558594,51.58984375,51.75130208,51.77278646,51.7203776,51.86230469,51.84667969,51.86979167,51.97949219,52.01497396,51.9938151,52.02734375,51.98567708,51.93619792,51.97786458,51.85384115,51.54720052,51.06119792,50.59244792,50.4375,50.07128906,50.06673177,49.82096354,50.0797526,50.1171875,50.39453125,50.47916667,50.48307292,50.57682292,50.60970052,50.70703125,50.74121094,50.76009115,50.80761719,50.75325521,50.7438151,50.7203776,50.67285156,50.35123698,49.86914063,49.66666667,49.37727865,49.18391927,49.22395833,49.35611979,49.53059896,49.85123698,49.91861979,49.98730469,50.06152344,50.18001302,50.39290365,50.48242188,50.68457031,50.75292969,50.80794271,50.87565104,50.97786458,51.0139974,50.86914063,50.71321615,50.53515625,49.99121094,49.61816406,49.54231771,49.55924479,49.58007813,49.51692708,49.76985677,49.80045573,49.87304688,49.90625,49.96940104,49.97526042,50.03678385,50.01790365,50.06608073,50.10807292,50.1578776,50.20963542,50.18457031,49.98958333,49.71061198,49.55957031,49.39550781,49.01985677,49.05240885,49.0719401,49.22265625,49.39322917,49.40592448,49.3610026,49.42317708,49.52571615,49.66210938,49.62792969,49.95019531,49.95540365,49.9453125,50.00227865,50.02571615,49.9921875,50.03808594,49.85579427,49.50846354,49.21972656,48.98079427,48.89876302,48.84765625,48.43229167,48.57747396,48.76464844,49.2750651,49.26920573,49.37695313,49.4313151,49.57226563,49.69986979,49.77832031,49.9921875,50.11295573,50.18652344,50.2109375,50.2171224,50.30761719,50.10514323,49.75911458,49.58138021,49.46354167,49.23144531,49.26985677,49.33984375,49.53938802,49.6780599,49.80501302,50.04589844,50.15364583,50.21549479,50.29166667,50.26009115,50.4000651,50.41341146,50.64095052,50.5452474,50.62272135,50.5641276,50.5797526,50.31445313,49.98925781,49.57161458,49.546875,49.30273438,49.35221354,49.43782552,49.75748698,50.03873698,50.16503906,50.17057292,50.40592448,50.49804688,50.84342448,51.03450521,51.19498698,51.27604167,51.61295573,51.79134115,51.93164063,52.02604167,51.9860026,51.72916667,51.37727865,51.17382813,51.02929688,50.7093099,50.68457031,50.74967448,50.99446615,51.02441406,51.33300781,51.34895833,51.49576823,51.54459635,51.66048177,51.77213542,51.85286458,51.89615885,51.92252604,52.0016276,52.05533854,52.09895833,52.02994792,51.60970052,51.36848958,51.17838542,50.97623698,50.96647135,50.83561198,50.93033854,51.2265625,51.67740885,51.84049479,51.94042969,52.18261719,52.41503906,52.59863281,52.89518229,53.23307292,53.32389323,53.70996094,53.84667969,54.00260417,54.08235677,54.12467448,53.84179688,53.59928385,53.42545573,53.59635417,53.78352865,54.265625,54.79720052,55.45410156,55.88248698,56.40690104,56.69010417,56.94954427,57.31477865,57.6155599,58.03125,58.40039063,58.92057292,59.30696615,59.67578125,59.34472656,58.73177083,58.47558594,57.63932292,57.03059896,56.83658854,56.80273438,57.08203125,57.60058594,58.29589844,58.63964844,58.77539063,58.61328125,58.38151042,58.30078125,58.20019531,58.25878906,58.34179688,58.44075521,58.48763021,58.6266276,58.64941406,58.76041667,58.86263021,58.58658854,58.02669271,57.55924479,57.20279948,56.89192708,56.89257813,56.84472656,57.09244792,57.2906901,57.47623698,57.52539063,57.62727865,57.66861979,57.7718099,57.85481771,57.87141927,57.84960938,57.94921875,57.96419271,57.90266927,57.99446615,57.99869792,57.70345052,57.1891276,56.67513021,56.19921875,55.79947917,55.43164063,55.19824219,55.17936198,55.22623698,55.26302083,55.3515625,55.44986979,55.56705729,55.68001302,55.79882813,55.90950521,56.0078125,56.1640625,56.38736979,56.5563151,56.7125651,56.85709635,56.671875,56.28808594,55.69238281,55.42317708,55.28417969,55.19433594,55.38867188,55.57552083,55.76074219,55.87044271,55.96972656,56.00976563,56.14160156,56.23763021,56.3968099,56.52213542,56.59700521,56.60872396,56.65071615,56.82779948,56.89518229,56.78808594,56.40332031,55.83821615,55.22167969,54.9703776,54.86686198,54.8186849,55.0250651,55.33235677,55.50227865,55.59342448,55.57714844,55.69238281,55.95507813,56.1077474,56.15625,56.18033854,56.40201823,56.48958333,56.52832031,56.5843099,56.67415365,56.67545573,56.17838542,55.70345052,55.2249349,54.99739583,54.88053385,54.96223958,55.12630208,55.36848958,55.58268229,55.703125,55.85091146,55.91731771,56.18652344,56.4436849,56.7438151,57.03352865,57.3359375,57.41471354,57.40722656,57.33561198,57.2639974,56.91536458,56.38411458,55.84667969,55.20117188,54.9235026,54.76595052,54.90429688,55.11328125,55.21614583,55.30240885,55.40559896,55.53125,55.51920573,55.64127604,55.6624349,55.82421875,55.85058594,55.90625,55.89127604,55.88867188,55.83170573,55.73177083,55.30696615,54.79817708,54.39941406,54.06640625,53.71647135,53.58300781,53.77376302,53.91927083,54.01953125,54.10026042,54.11458333,54.34570313,54.375,54.45182292,54.58007813,54.74121094,54.75748698,54.83658854,54.84016927,55.06184896,55.13346354,54.97070313,54.57454427,53.93326823,53.54980469,53.4593099,53.51367188,53.57519531,53.8186849,54.00976563,54.0406901,54.0953776,54.21484375,54.2874349,54.35970052,54.46386719,54.34179688,54.45507813,54.46777344,54.55859375,54.49967448,54.58658854,54.45703125,53.96061198,53.47200521,53.05859375,52.64029948,52.49414063,52.53190104,52.70638021,52.76464844,52.82356771,52.85286458,52.98925781,53.10058594,53.20638021,53.23372396,53.43977865,53.64127604,53.75585938,53.90527344,54.00260417,54.09765625,54.17252604,54.04134115,53.59700521,53.18391927,53.00911458,52.76497396,52.71875,52.78841146,52.84016927,52.98111979,52.9983724,52.9860026,53.0563151,53.10709635,53.24739583,53.28548177,53.40039063,53.53255208,53.59179688,53.65625,53.90950521,53.90201823,53.9202474,53.57942708,53.19661458,52.55045573,52.37695313,52.25325521,52.29654948,52.34765625,53.32226563,54.21484375,54.2578125,54.24739583,54.34147135,54.41927083,54.5296224,54.54427083,54.69173177,54.65755208,54.65625,54.72070313,54.77701823,54.70540365,54.50423177,54.09082031,53.7360026,53.52929688,53.28092448,53.27441406,53.46940104,53.63509115,53.80696615,54.03938802,54.13346354,54.15885417,54.33300781,54.55826823,54.69010417,54.6969401,54.80924479,54.81054688,54.82259115,54.89908854,54.89420573,54.91536458,54.5546875,54.0719401,53.69889323,53.41015625,53.20670573,53.13606771,53.33138021,53.50195313,53.51790365,53.54915365,53.64322917,53.73242188,54.09635417,54.1311849,54.26171875,54.29752604,54.35514323,54.3828125,54.49446615,54.54361979,54.59309896,54.32161458,53.94791667,53.71809896,53.68229167,53.60351563,53.47884115,53.63053385,53.81282552,53.98046875,54.08268229,54.05501302,54.14127604,54.26822917,54.41080729,54.42903646,54.58723958,54.75683594,54.90234375,54.97688802,55.00455729,55.11263021,54.87207031,54.47200521,54.05794271,53.90852865,53.73404948,53.59016927,53.54427083,53.61946615,53.60026042,53.61230469,53.68424479,53.75846354,53.85742188,53.88053385,53.9671224,53.95345052,54.0485026,54.10026042,54.19498698,54.18717448,54.26627604,54.04329427,53.61979167,53.30273438,52.97330729,52.85351563,52.91764323,53.06477865,53.33398438,53.28776042,53.08886719,53.03613281,52.9609375,52.83821615,52.7828776,52.68391927,52.58268229,52.55957031,52.73763021,52.81315104,52.97949219,52.97916667,52.79394531,52.39095052,52.10514323,51.85839844,51.77376302,51.70052083,51.77311198,51.90266927,51.99902344,52.08789063,52.10384115,52.14778646,52.23209635,52.2890625,52.33040365,52.40364583,52.56738281,52.58658854,52.66048177,52.67871094,52.79459635,52.69726563,52.35188802,52.09114583,51.9781901,51.82845052,51.88802083,51.96516927,52.02278646,52.13932292,52.09147135,52.08138021,52.0641276,52.16992188,52.27832031,52.3577474,52.44954427,52.47363281,52.6031901,52.66145833,52.77636719,52.86458333,52.7265625,52.26790365,51.78352865,51.65559896,51.55273438,51.59179688,51.6171875,51.69563802,51.7874349,51.80729167,51.82389323,51.79394531,51.8264974,51.85091146,51.97884115,51.95800781,52.00358073,52.03971354,52.16276042,52.14811198,52.14778646,52.12630208,51.79394531,51.61523438,51.37532552,51.44108073,51.30989583,51.40494792,51.64322917,51.94335938,52.05664063,52.23372396,52.33463542,52.49902344,52.75325521,52.79329427,52.92773438,52.89290365,52.98502604,53.07389323,53.1484375,53.17480469,53.14029948,52.66796875,52.40104167,52.21289063,52.17057292,52.14876302,52.32356771,52.48893229,52.63020833,52.70410156,52.75195313,52.75911458,52.74739583,52.67578125,52.73697917,52.80664063,52.83365885,52.87207031,52.92317708,52.97591146,52.95247396,53.07324219,52.98177083,52.70540365,52.44726563,52.33919271,52.43457031,52.46582031,52.69238281,52.84309896,52.88964844,52.9827474,53.02539063,53.12304688,53.17643229,53.22591146,53.18847656,53.29296875,53.36230469,53.29296875,53.35904948,53.39973958,53.4921875,53.51888021,53.14908854,52.84147135,52.50032552,52.42122396,52.52473958,52.5921224,52.68880208,52.73567708,52.91666667,52.96875,53.01367188,53.0999349,53.203125,53.31510417,53.42578125,53.42513021,53.70996094,53.75878906,53.80208333,53.88802083,53.89876302,53.58463542,53.27278646,53.08723958,52.83886719,52.7639974,52.91699219,53.10416667,53.31445313,53.53255208,53.84375,53.9671224,54.26074219,54.34082031,54.3922526,54.41764323,54.49641927,54.61197917,54.79557292,54.96419271,55.1484375,55.39420573,55.33268229,54.93815104,54.55891927,54.3030599,53.9749349
55.40559896,55.45182292,55.46549479,55.49121094,55.41503906,55.35091146,55.07259115,54.97330729,54.68880208,54.6188151,54.63151042,54.63541667,54.60904948,54.70540365,54.73470052,54.76529948,54.69921875,54.71582031,54.75651042,54.80794271,54.79361979,54.88964844,54.85807292,54.87792969,54.91503906,54.92675781,54.95540365,54.9671224,54.71419271,54.46842448,54.27018229,54.16731771,54.08658854,54.09147135,54.12141927,54.22916667,54.33170573,54.31901042,54.4514974,54.51790365,54.53776042,54.61946615,54.6266276,54.66113281,54.81575521,54.85742188,54.86816406,54.89876302,54.92317708,54.88574219,54.66536458,54.4625651,54.28808594,54.20345052,54.0641276,54.06510417,54.18652344,54.33919271,54.46842448,54.65234375,54.77050781,54.84635417,54.84277344,54.93522135,54.93391927,55.15429688,55.1468099,55.22298177,55.21386719,55.31608073,55.35807292,55.40234375,55.08072917,54.85351563,54.75292969,54.70768229,54.65820313,54.75130208,54.85091146,54.96809896,55.0139974,55.11816406,55.19986979,55.30110677,55.30598958,55.38736979,55.37825521,55.47558594,55.50097656,55.57877604,55.71223958,55.80794271,55.81640625,55.89648438,55.59082031,55.49934896,55.23535156,55.0296224,54.76790365,54.79361979,54.94205729,55.11035156,55.09928385,55.05533854,55.03841146,55.09342448,55.16666667,55.33561198,55.34733073,55.43066406,55.52441406,55.64192708,55.84830729,55.96744792,55.91113281,55.90104167,55.52994792,55.45345052,55.3203125,55.31477865,55.35481771,55.4703776,55.39518229,54.67447917,54.59635417,54.37434896,54.43457031,54.45703125,54.546875,54.52604167,54.52897135,54.47851563,54.45735677,54.5999349,54.72884115,54.81477865,54.76367188,54.45117188,54.18359375,54.08723958,54.05566406,53.83528646,53.80501302,53.90885417,54.03613281,54.25520833,54.49511719,54.64290365,54.70735677,54.83854167,54.83333333,54.85481771,54.7906901,54.82226563,54.81901042,54.86067708,54.91861979,55.00911458,54.77539063,54.5296224,54.33300781,54.25325521,54.1780599,54.03613281,54.08919271,54.10904948,54.0719401,54.33789063,54.44824219,54.49283854,54.47102865,54.484375,54.49544271,54.5452474,54.55859375,54.63606771,54.57519531,54.52539063,54.52604167,54.5234375,54.26757813,54.20214844,54.04134115,54.11588542,53.96386719,54.08333333,54.16796875,54.35872396,54.36165365,54.40722656,54.44596354,54.48144531,54.52311198,54.58561198,54.55664063,54.66015625,54.62402344,54.69205729,54.6640625,54.71484375,54.69889323,54.63574219,54.42838542,53.90364583,53.98177083,54.00651042,54.06608073,54.22363281,54.30924479,54.34960938,54.36946615,54.46516927,54.48860677,54.55175781,54.60123698,54.68001302,54.71809896,54.73697917,54.75,54.74446615,54.82779948,54.87304688,54.86783854,54.79134115,54.61035156,54.42838542,54.26692708,54.25,54.31673177,54.3515625,54.47558594,54.50585938,54.45410156,54.47981771,54.46940104,54.49316406,54.44986979,54.35286458,54.40527344,54.30989583,54.31445313,54.42122396,54.50520833,54.46061198,54.38346354,54.21061198,54.05566406,54.0625,54.03613281,54.14876302,54.34244792,54.4781901,54.42447917,54.41471354,54.40332031,54.4358724,54.39648438,54.40364583,54.41471354,54.4703776,54.41048177,54.46809896,54.47623698,54.48535156,54.4905599,54.40722656,54.28385417,54.10123698,53.97591146,53.96614583,53.73828125,53.81640625,53.859375,53.8499349,53.82845052,53.83528646,53.90852865,54,54.02539063,54.15917969,54.13867188,54.12402344,54.00488281,54.02571615,53.72884115,53.71028646,53.6344401,53.29817708,53.07128906,52.89192708,52.83170573,52.77636719,52.60514323,52.56315104,52.62011719,53.171875,54.03222656,54.28613281,54.359375,54.53385417,54.5485026,54.62955729,54.63020833,54.58951823,54.6188151,54.66861979,54.7594401,54.78320313,54.48144531,54.26041667,54.125,54.02408854,53.92936198,53.99088542,54.04654948,54.11946615,54.11751302,54.14550781,54.28157552,54.17740885,54.25911458,54.39550781,54.32910156,54.35546875,54.29459635,54.38378906,54.3203125,54.3375651,54.32714844,54.17643229,53.90266927,53.64973958,53.55761719,53.56673177,53.61621094,53.79296875,53.84863281,53.91015625,53.84505208,53.87239583,53.91927083,53.95703125,53.98502604,54.11425781,54.19563802,54.34830729,54.34700521,54.47591146,54.52734375,54.4469401,54.13346354,53.93033854,53.63932292,53.60026042,53.59342448,53.63704427,53.70214844,53.76985677,53.73860677,53.73535156,53.79947917,53.88020833,53.89322917,53.94596354,53.99348958,54,54.06901042,54.15527344,54.13802083,54.33072917,54.25390625,54.0797526,53.8610026,53.54264323,53.43033854,53.39908854,53.45182292,53.59375,53.68359375,53.7578125,53.71842448,54.20377604,54.2093099,54.19010417,54.14746094,54.20117188,54.18977865,54.1891276,54.19889323,54.16699219,54.10253906,54.09733073,53.8453776,53.59928385,53.46061198,53.41178385,53.4156901,53.44661458,53.5641276,53.625,53.65136719,53.72721354,53.75,53.85611979,53.89648438,53.97200521,53.96354167,54.07877604,54.25748698,54.31575521,54.31542969,54.45377604,54.42317708,54.28808594,54.06510417,54,53.90820313,53.9391276,53.98632813,54.02669271,54.16048177,54.28059896,54.31282552,54.3203125,54.31835938,54.39973958,54.45572917,54.4547526,54.46940104,54.50846354,54.56542969,54.53645833,54.4938151,54.39518229,54.21972656,53.98763021,53.89778646,53.87760417,53.89973958,53.93164063,53.99479167,54.16666667,54.2578125,54.2639974,54.32161458,54.43261719,54.43391927,54.49804688,54.4983724,54.58854167,54.63867188,54.72851563,54.68424479,54.77897135,54.71126302,54.609375,54.33626302,54.05794271,53.88802083,53.85384115,53.75878906,53.81510417,53.85872396,53.87923177,53.96061198,53.95703125,53.98470052,54.00683594,54.0296224,54.109375,54.08561198,54.22167969,54.19498698,54.2750651,54.27734375,54.38020833,54.30859375,54.08040365,53.87141927,53.85644531,53.78580729,53.84733073,53.87988281,53.98111979,53.9983724,54.05273438,54.07128906,54.09667969,54.19205729,54.19010417,54.21875,54.26432292,54.32128906,54.39160156,54.44010417,54.47070313,54.43945313,54.48144531,54.25911458,54.04199219,53.88085938,53.8125,53.84082031,53.86588542,53.97688802,54.08691406,54.24283854,54.23665365,54.18391927,54.25520833,54.29101563,54.42057292,54.45019531,54.48046875,54.49511719,54.68652344,54.72102865,54.75846354,54.63606771,54.46875,54.15039063,53.87109375,53.85123698,53.77115885,53.75813802,53.83007813,53.94433594,54.01236979,54.03808594,54.02083333,53.97623698,54.05729167,54.13736979,54.16276042,54.21126302,54.25227865,54.29101563,54.31575521,54.3219401,54.36002604,54.12760417,53.90950521,53.79329427,53.77408854,53.75585938,53.82226563,53.86360677,54.13476563,54.06477865,54.10123698,54.10058594,54.19205729,54.13053385,54.17578125,54.2639974,54.31608073,54.28710938,54.36360677,54.40917969,54.47265625,54.39029948,54.14648438,53.99739583,53.89778646,53.8343099,53.84016927,53.81380208,53.94596354,54.09277344,54.16601563,54.15592448,54.27636719,54.35839844,54.4609375,54.57617188,54.69042969,54.80729167,54.89518229,54.94986979,55.05501302,55.01822917,55.0452474,54.86328125,54.54394531,54.3577474,54.11035156,54.04622396,54.0530599,54.05957031,54.17154948,54.18522135,54.23795573,54.24121094,54.26985677,54.26334635,54.31901042,54.39550781,54.38932292,54.46614583,54.51790365,54.41210938,54.40917969,54.2171224,53.88541667,53.42154948,52.95605469,52.62109375,52.60384115,52.75651042,53.00813802,53.29557292,53.35449219,53.29947917,53.34570313,53.37304688,53.57454427,53.75553385,54.10970052,54.27994792,54.52734375,54.5234375,54.63671875,54.67578125,54.76757813,54.78417969,54.5452474,54.31966146,54.08040365,53.94108073,53.91861979,53.95052083,54.09114583,54.26888021,54.30143229,54.28710938,54.30859375,54.36783854,54.47460938,54.52832031,54.55371094,54.54296875,54.5953776,54.59570313,54.86263021,54.86653646,54.84570313,54.73535156,54.55729167,54.359375,54.10807292,53.99316406,53.99544271,54.02864583,54.18619792,54.30761719,54.23795573,54.29882813,54.31217448,54.26367188,54.35123698,54.44986979,54.41731771,54.50976563,54.51074219,54.50683594,54.58854167,54.60384115,54.61979167,54.58561198,54.37597656,54.12890625,54.10026042,54.03092448,54.08007813,54.22558594,54.30566406,54.3655599,54.45768229,54.44466146,54.56966146,54.54329427,54.62858073,54.67415365,54.83072917,54.87109375,54.95800781,55.0094401,54.9671224,54.99023438,54.91992188,54.671875,54.36230469,54.09798177,54.03873698,54.03841146,54.0530599,54.14127604,54.32291667,54.38704427,54.43489583,54.40201823,54.53255208,54.54980469,54.59472656,54.64160156,54.88736979,54.91764323,54.95768229,55.00878906,55.03776042,55.02311198,55.00813802,54.72981771,54.46744792,54.35449219,54.17447917,54.15950521,54.20345052,54.33984375,54.38248698,54.54231771,54.4781901,54.45214844,54.53645833,54.54622396,54.6188151,54.62272135,54.67057292,54.66048177,54.94270833,55.02929688,55.0374349,55.04817708,54.99772135,54.7203776,54.51236979,54.30143229,54.25032552,54.26204427,54.35677083,54.4781901,54.59895833,54.58072917,54.64550781,54.67838542,54.95052083,54.95279948,55.05859375,55.1233724,55.14485677,55.17545573,55.22916667,55.28971354,55.35123698,55.31119792,55.24544271,54.99869792,54.77799479,54.63964844,54.60807292,54.42578125,54.51595052,54.72005208,54.74153646,54.93457031,54.9593099,55.05436198,55.09700521,55.18815104,55.22363281,55.25683594,55.34244792,55.40559896,55.43847656,55.41894531,55.46484375,55.44791667,55.36751302,55.13509115,54.86653646,54.77994792,54.78027344,54.72330729,54.8063151,54.8766276,54.97526042,54.98958333,54.99023438,54.96940104,54.99316406,55.00878906,55.05826823,55.11588542,55.17220052,55.1578776,55.20963542,55.1891276,55.22200521,55.25065104,55.1858724,54.93977865,54.78385417,54.70996094,54.68196615,54.72949219,54.77311198,54.95605469,55.07291667,55.14257813,55.19661458,55.24739583,55.31640625,55.36360677,55.453125,55.44628906,55.54231771,55.51432292,55.58984375,55.61230469,55.63834635,55.62402344,55.49902344,55.18294271,55.09244792,54.9593099,54.85872396,54.90332031,54.99707031,55.11914063,55.20865885,55.22623698,55.19726563,55.26627604,55.25358073,55.2421875,55.31054688,55.40136719,55.50455729,55.55533854,55.51269531,55.50358073,55.59505208,55.58463542,55.43391927,55.09114583,54.94596354,54.82747396,54.79134115,54.80566406,54.88053385,54.92643229,55.03971354,55.01236979,55.10481771,55.07454427,55.06933594,55.10449219,55.20019531,55.24641927,55.26529948,55.21028646,55.26627604,55.27408854,55.33268229,55.33919271,55.16959635,54.921875,54.79427083,54.72981771,54.67089844,54.69335938,54.84179688,54.92871094,54.96842448,54.93457031,54.92317708,54.93619792,54.96191406,54.94108073,54.9781901,54.94108073,54.9905599,54.91666667,54.95084635,54.89973958,54.9202474,54.79589844,54.57356771,54.38639323,54.16373698,54.12890625,54.14518229,54.19303385,54.27734375,54.44889323,54.46614583,54.51009115,54.51627604,54.51106771,54.50748698,54.48925781,54.42089844,54.421875,54.3889974,54.33854167,54.34342448,54.24902344,54.30696615,54.17447917,53.84277344,53.6311849,53.52213542,53.46679688,53.48307292,53.49902344,53.5218099,53.62076823,53.59895833,53.53515625,53.45996094,53.40494792,53.4547526,53.54199219,53.71289063,53.77929688,54.02083333,54.08561198,54.28515625,54.48535156,54.70442708,54.82617188,54.70507813,54.62630208,54.45833333,54.27864583,54.27278646,54.22786458,54.31022135,54.26074219,54.14322917,54.06282552,54.0608724,54.04589844,53.9235026,53.84505208,53.89127604,53.93001302,53.99967448,54.04134115,54.11002604,54.10091146,54.12792969,53.95279948,53.75032552,53.68196615,53.57356771,53.54361979,53.4921875,53.49934896,53.55989583,53.58170573,53.5859375,53.60839844,53.62955729,53.69661458,53.74251302,53.77929688,53.79361979,53.84147135,53.95898438,53.96777344,54.03808594,54.09277344,54.12695313,53.87402344,53.703125,53.58789063,53.57714844,53.48014323,53.50423177,53.69498698,53.77441406,53.84700521,53.87011719,53.86263021,53.91308594,54.01106771,54.08040365,54.08105469,54.11295573,54.11197917,54.21386719,54.30533854,54.34928385,54.36816406,54.28417969,54.03645833,53.81054688,53.63541667,53.53059896,53.53971354,53.57096354,53.58821615,53.65820313,53.68164063,53.7281901,53.64583333,53.53125,53.28776042,53.1858724,52.89876302,52.70865885,52.74609375,52.62565104,52.62207031,52.51171875,52.39583333,52.17447917,51.87695313,51.53027344,51.43326823,51.60058594,51.78515625,52.05664063,52.33365885,52.78417969,52.91373698,53.12272135,53.22460938,53.52636719,53.59342448,53.76464844,53.81477865,53.91341146,53.86588542,53.81901042,53.51236979,53.32291667,53.03255208,52.56998698,52.15266927,51.7561849,51.5452474,51.3733724,51.23014323,51.11165365,50.99316406,50.84114583,50.59570313,50.25878906,49.7734375,49.35449219,49.2047526,49.02278646,49.44042969,49.19075521,49.18164063,49.26953125,49.23697917,49.38997396,49.68196615,50.00032552,50.05110677,50.24576823,50.32226563,50.47070313,50.49316406,50.66438802,50.74772135,50.80957031,50.90592448,51.63541667,52.10709635,52.58365885,52.96842448,53.26464844,53.50423177,53.65201823,53.73307292,54.03125,54.37890625,54.77311198,55.06640625,55.14095052,55.14257813,55.12695313,54.94628906,54.91731771,54.91471354,55.03320313,55.05566406,55.10384115,55.08984375,55.08691406,55.03613281,55.09244792,55.11946615,55.19205729,55.22167969,55.22688802,55.24674479,55.31315104,55.32324219,55.34928385,55.25748698,55.01660156,54.72200521,54.59505208,54.49414063,54.43489583,54.453125,54.64388021,54.74674479,54.74804688,54.80338542,54.85579427,54.84700521,54.89160156,54.94173177,54.98632813,55.09635417,55.18880208,55.18945313,55.28515625,55.27604167,55.30598958,55.19303385,54.98339844,54.73535156,54.59277344,54.5218099,54.54361979,54.55013021,54.59244792,54.68359375,54.67382813,54.61425781,54.69270833,54.73925781,54.71354167,54.76106771,54.80729167,54.78548177,54.87109375,54.82356771,54.86490885,54.89941406,54.89095052,54.81835938,54.58951823,54.33951823,54.18489583,54.03515625,54.02799479,54.07552083,54.07682292,54.27766927,54.42675781,54.48014323,54.55859375,54.6233724,54.67480469,54.74804688,54.82845052,54.91373698,55.05566406,55.11946615,55.16992188,55.14192708,55.10872396,54.8108724,54.73535156,54.67871094,54.68229167,54.58398438,54.66080729,54.72753906,54.84733073,54.90820313,54.97591146,54.98697917,55.01074219,54.97688802,55.14876302,55.16373698,55.32714844,55.26627604,55.35807292,55.39583333,55.4625651,55.59863281,55.63769531,55.43098958,55.16992188,55.05436198,55.03873698,54.99316406,55.10514323,55.14908854,55.22200521,55.23079427,55.37109375,55.37304688,55.40136719,55.45703125,55.47363281,55.52278646,55.67643229,55.6171875,55.92610677,55.87988281,55.13639323,55.06803385,54.65592448,54.4313151,54.10026042,53.98177083,53.93652344,53.9938151,54.11946615,54.18261719,54.27213542,54.2906901,54.29720052,54.26920573,54.29003906,54.31315104,54.39127604,54.40039063,54.4296875,54.53157552,54.60416667,54.57454427,54.64192708,54.62565104,54.58398438,54.3531901,54.14941406,54.06933594,54.01139323,54.05989583,54.11035156,54.203125,54.26464844,54.27473958,54.2438151,54.2890625,54.359375,54.41341146,54.50748698,54.55533854,54.66536458,54.68229167,54.66048177,54.61295573,54.64453125,54.61653646,54.4391276,54.14583333,53.95279948,53.82324219,53.87923177,53.91341146,53.98177083,54.07747396,54.18522135,54.2249349,54.265625,54.29199219,54.35709635,54.36523438,54.43847656,54.43066406,54.57291667,54.60872396,54.60351563,54.61360677,54.62630208,54.60221354,54.42740885,54.22688802,54.10514323,54.03580729,54.03320313,53.9860026,54.02473958,54.08951823,54.17154948,54.19986979,54.21126302,54.22102865,54.25130208,54.25716146,54.27115885,54.27441406,54.27766927,54.19759115,54.22070313,54.31477865,54.31119792,54.34765625,54.13802083,53.92773438,53.80143229,53.69791667,53.7718099,53.6702474,53.73763021,53.8610026,53.9765625,53.99869792,54.10449219,54.10677083,54.14257813,54.16861979,54.24674479,54.28515625,54.36979167,54.29654948,54.30045573,54.4202474,54.4124349,54.30664063,54.08138021,53.83528646,53.77408854,53.72721354,53.55859375,53.58235677,53.72428385,53.82552083,53.91764323,54.03352865,54.05045573,54.13964844,54.19498698,54.19563802,54.27701823,54.33300781,54.39583333,54.3889974,54.51790365,54.46549479,54.49251302,54.29980469,54.0485026,53.9469401,53.81152344,53.77994792,53.82356771,53.81966146,53.78678385,53.96842448,53.9202474,53.95507813,54.06054688,54.09733073,54.14029948,54.21907552,54.28645833,54.29101563,54.34440104,54.35807292,54.33789063,54.36002604,54.43522135,54.27246094,54.05436198,53.90429688,53.82845052,53.78710938,53.82779948,53.8844401,54.02246094,54.00227865,54.109375,54.14876302,54.20865885,54.23795573,54.31738281,54.33561198,54.34407552,54.33886719,54.38639323,54.44759115,54.5094401,54.53157552,54.39908854,54.17317708,53.92903646,53.79361979,53.70084635,53.74869792,53.79492188,53.9391276,54.06119792,54.04492188,54.09407552,54.13606771,54.12239583,54.1656901,54.20572917,54.22070313,54.29036458,54.3811849,54.37695313,54.36946615,54.40950521,54.45019531,54.24186198,53.94954427,53.83626302,53.76139323,53.765625,53.73372396,53.75260417,53.68717448,53.88378906,53.85221354,53.82128906,53.86132813,53.91080729,53.95735677,53.95572917,53.9046224,53.94108073,53.97786458,53.9280599,53.86458333,53.84277344,53.84635417,53.66276042,53.46386719,53.47721354,53.32096354,53.30240885,53.31542969,53.40592448,53.16503906,52.61621094,52.3219401,51.71744792,51.4593099,51.19921875,51.32356771,51.34049479,51.55533854,52.1171875,52.53580729,52.93847656,52.99251302,53.06738281,53.03320313,52.86393229,52.60579427,52.49479167,52.49121094,52.5406901,52.64029948,52.78938802,53.0078125,53.12760417,53.32747396,53.43359375,53.53157552,53.70768229,54.078125,54.27115885,54.29915365,54.35709635,54.37988281,54.45117188,54.46842448,54.50292969,54.3733724,54.171875,53.93945313,53.82617188,53.84570313,53.8889974,53.87923177,53.9671224,54.0374349,54.12304688,54.05338542,54.09928385,54.06510417,54.14160156,54.1936849,54.27246094,54.29817708,54.40364583,54.48470052,54.66080729,54.80371094,54.97786458,54.87076823,54.61848958,54.38509115,54.26497396
56.06380208,56.00455729,56.07682292,56.21842448,56.12272135,56.24414063,56.22786458,56.27213542,56.27246094,56.32389323,56.18489583,56.01529948,55.90332031,55.74674479,55.7561849,55.73763021,55.81835938,55.87044271,56.02050781,56.04459635,56.03059896,56.13183594,56.14192708,56.1484375,56.23665365,56.29947917,56.30566406,56.34277344,56.30208333,56.3297526,56.38606771,56.36197917,56.12988281,56.00585938,55.81217448,55.78873698,55.73925781,55.77604167,55.72949219,55.84830729,55.86165365,55.95117188,55.97005208,56.03385417,56.06835938,56.12174479,56.11230469,56.15820313,56.1389974,56.21875,56.26171875,56.24869792,56.28059896,56.20638021,55.89453125,55.74772135,55.69270833,55.66829427,55.73730469,55.81835938,55.91829427,55.96679688,55.98893229,55.99772135,56.02832031,56.03222656,56.04166667,56.09635417,56.17252604,56.18945313,56.19563802,56.22363281,56.19303385,56.33821615,56.19108073,55.90039063,55.81347656,55.68554688,55.58007813,55.65592448,55.7281901,55.83007813,55.86848958,55.93326823,55.88834635,55.98111979,56.05957031,56.11393229,56.00130208,56.07714844,56.00260417,56.04915365,56.14257813,56.1031901,55.99316406,55.86328125,55.64192708,55.52799479,55.41210938,55.43815104,55.36360677,55.45670573,55.52994792,55.58300781,55.59375,55.59342448,55.58886719,55.5608724,55.5875651,55.55436198,55.5843099,55.67220052,55.67903646,55.69889323,55.7750651,55.74251302,55.64583333,55.55989583,55.46777344,55.23339844,55.24609375,55.23567708,55.24902344,55.45247396,56.36490885,56.51660156,56.83984375,56.92252604,57.08138021,57.1546224,57.25520833,57.25976563,57.31184896,57.30696615,57.29817708,57.35644531,57.35546875,57.31835938,57.14550781,57.01497396,56.99023438,57.03059896,57.02571615,57.07389323,57.20540365,57.29459635,57.34765625,57.41438802,57.41992188,57.4436849,57.57421875,56.74967448,56.30078125,56.45800781,56.50846354,56.47753906,56.43684896,56.4921875,56.36263021,56.12890625,55.97949219,55.73404948,55.77994792,55.71223958,55.80989583,55.82584635,55.85286458,55.85416667,55.87825521,55.88085938,56.01888021,56.04589844,56.18847656,56.32063802,56.26757813,56.36165365,56.45377604,56.5078125,56.44433594,56.32226563,56.19303385,56.17154948,55.92740885,55.86002604,55.69791667,55.7561849,55.78515625,55.84798177,55.90950521,56.13346354,56.21028646,56.24544271,56.28157552,56.37597656,56.4313151,56.44856771,56.46061198,56.47135417,56.50097656,56.57486979,56.54785156,56.41276042,56.22363281,56.19433594,56.17578125,56.18619792,56.21516927,56.30273438,56.38216146,56.32161458,56.22949219,56.31933594,56.34147135,56.28613281,56.30273438,56.27636719,56.26334635,56.26464844,56.25716146,56.24251302,56.31998698,56.28483073,56.13411458,56.02311198,55.87011719,55.8531901,55.92936198,55.93652344,56.02701823,56.04947917,56.03417969,56.10253906,56.16992188,56.22167969,56.21419271,56.31803385,56.30989583,56.26269531,56.28776042,56.31315104,56.3343099,56.34016927,56.23665365,56.13802083,55.94824219,55.95410156,55.94954427,55.88411458,55.91113281,55.99804688,56.01627604,56.09798177,56.0296224,56.11132813,56.08561198,56.05729167,56.11783854,56.22395833,56.21582031,56.19791667,56.20735677,56.16471354,56.24869792,56.27766927,56.140625,56.10514323,56.08203125,56.0797526,56.02050781,56.0608724,56.10351563,56.2281901,56.3030599,56.36946615,56.41471354,56.46875,56.4547526,56.50455729,56.57128906,56.53190104,56.52246094,56.51627604,56.4827474,56.546875,56.56347656,56.56282552,56.41992188,56.28776042,56.23567708,56.15625,56.24869792,56.33528646,56.49316406,56.47623698,56.54817708,56.63085938,56.71028646,56.74348958,56.93457031,57.05338542,57.09602865,57.140625,57.24544271,57.27929688,57.28841146,57.38541667,57.30826823,57.16861979,57.02799479,56.89713542,56.84635417,56.83691406,56.8499349,56.88476563,56.9358724,56.9765625,56.87467448,57.09375,57.08040365,57.11263021,57.24674479,57.19726563,55.59375,54.03938802,55.15950521,56.58105469,57.3515625,57.58886719,57.49153646,57.21354167,57.05208333,56.9609375,56.8889974,56.91178385,56.87239583,56.97884115,56.90136719,56.84733073,56.79915365,56.8030599,56.82324219,56.82486979,56.88151042,56.7906901,56.77832031,56.72233073,56.73795573,56.7405599,56.68717448,56.68261719,56.53548177,56.30696615,56.19173177,56.07128906,55.89453125,55.86425781,55.80761719,55.77929688,55.77376302,55.95507813,55.94042969,56.01660156,56.05566406,56.08789063,56.14290365,56.18066406,56.22526042,56.32486979,56.27311198,56.22526042,56.03417969,55.84733073,55.64388021,55.39322917,55.22135417,55.2734375,55.33496094,55.48795573,55.50813802,55.61263021,55.62858073,55.64127604,55.65104167,55.72688802,55.78841146,55.83105469,55.81901042,55.85091146,55.89029948,56.04427083,55.99414063,55.89257813,55.84244792,55.71484375,55.48697917,55.43196615,55.52408854,55.43261719,55.40592448,55.61393229,55.72135417,55.78580729,55.86783854,55.95214844,55.99251302,56.06575521,56.03515625,56.06445313,56.00195313,55.96842448,55.89941406,55.8186849,55.81152344,55.765625,55.77994792,55.75651042,55.54394531,55.42903646,55.43359375,55.29947917,55.3844401,55.45507813,55.4905599,55.41276042,55.48307292,55.54492188,55.6813151,55.76595052,55.6422526,55.66145833,55.53776042,55.38769531,55.35188802,55.3359375,55.20507813,55.23665365,55.09700521,54.92057292,54.62760417,54.41634115,54.15983073,54.04785156,54.02929688,53.99414063,54.13802083,54.1110026,54.19270833,54.12727865,54.11816406,54.04557292,54.0764974,54.09277344,54.07291667,54.11035156,54.1656901,54.29980469,54.28938802,54.28938802,54.2874349,54.13313802,54.09830729,54.1640625,54.14746094,54.08691406,54.08398438,54.2014974,54.2594401,54.34602865,54.27115885,54.39355469,54.41829427,54.5843099,54.59700521,54.73730469,54.77148438,54.79231771,54.77246094,54.71419271,54.80143229,54.88769531,55.15299479,55.16438802,55.01139323,54.91829427,54.84472656,54.75585938,54.50683594,54.56705729,54.64908854,54.68880208,54.65397135,54.5764974,54.58561198,54.70898438,54.6640625,54.75651042,54.74414063,54.7828776,54.8343099,54.84244792,55.03417969,54.98242188,55.04622396,55.01432292,54.92936198,54.85677083,54.82486979,54.70898438,54.77050781,55.02832031,55.10677083,55.12565104,55.18457031,55.18652344,55.27246094,55.34375,55.48470052,55.63411458,55.60286458,55.66503906,55.67057292,55.7047526,55.68652344,55.71386719,55.80403646,55.69889323,55.54394531,55.44628906,55.39583333,55.30371094,55.27799479,55.27278646,55.41308594,55.44173177,55.49283854,55.4436849,55.48307292,55.58365885,55.58691406,55.65039063,55.61132813,55.54752604,55.55566406,55.57584635,55.51367188,55.47688802,55.5094401,55.48795573,55.35286458,55.18391927,55.09667969,54.99739583,54.94759115,55.00130208,55.01106771,55.09342448,55.14648438,55.15039063,55.17513021,55.15885417,55.22949219,55.33007813,55.28157552,55.38476563,55.36979167,55.38053385,55.39192708,55.4046224,55.38671875,55.41894531,55.28190104,55.17838542,55.08398438,55.02701823,55.00292969,55.05761719,55.20768229,55.39746094,55.3108724,55.36132813,55.47265625,55.54817708,55.46028646,55.62044271,55.62467448,55.65722656,55.62760417,55.7171224,55.81119792,55.84244792,55.82324219,55.80501302,55.67252604,55.57552083,55.46419271,55.46028646,55.42089844,55.39290365,55.44042969,55.52539063,55.63020833,55.58789063,55.60253906,55.57942708,55.57259115,55.57584635,55.54817708,55.59277344,55.58463542,55.52539063,55.58496094,55.57747396,55.57389323,55.65039063,55.59440104,55.39355469,55.32584635,55.28808594,55.26464844,55.27473958,55.33268229,55.43554688,55.60709635,55.66796875,55.78157552,55.98339844,56.09309896,56.27701823,56.30729167,56.46223958,56.88053385,57.07779948,57.06738281,57.07161458,57.01171875,57.04199219,56.88020833,56.72786458,56.4921875,56.4781901,56.47167969,56.38053385,56.40559896,56.4078776,56.37402344,56.37434896,56.42740885,56.48079427,56.57259115,56.60904948,56.62955729,56.75651042,56.85546875,56.90169271,56.81217448,56.95019531,56.9609375,57.06217448,57.08984375,56.97460938,56.76627604,56.72070313,56.7750651,56.92675781,56.92057292,57.03938802,57.12923177,57.07454427,57.02441406,57.10514323,57.12272135,57.14290365,57.0452474,56.98535156,56.99576823,57.0234375,56.98665365,57.05013021,57.08203125,57.14615885,57.12304688,57.11946615,56.93554688,56.77766927,56.76367188,56.80989583,56.85091146,56.78222656,56.85286458,56.83496094,56.79622396,56.86458333,56.86230469,56.93326823,56.94889323,57.03483073,57.08040365,57.14322917,57.05989583,57.16113281,57.16927083,57.15527344,57.11328125,57.12044271,56.91959635,56.82389323,56.8421224,56.80989583,56.9078776,56.91015625,57.0530599,57.07779948,56.9905599,57.03385417,57.00032552,57.00911458,57.01041667,57.00488281,57.01009115,57.0563151,56.9671224,56.98632813,57.04492188,57.07617188,57.02571615,57.0406901,56.92057292,56.82584635,56.71354167,56.66015625,56.6500651,56.64485677,56.6233724,56.76497396,56.77701823,56.77701823,56.82161458,56.91080729,56.8610026,56.88151042,56.88802083,56.98079427,56.91536458,56.84733073,56.85416667,56.81738281,56.76302083,56.74641927,56.61621094,56.4140625,56.35611979,56.33919271,56.23535156,56.24088542,56.26888021,56.32063802,56.39941406,56.3828125,56.45117188,56.48665365,56.55045573,56.65169271,56.71516927,56.75,56.79980469,56.74446615,56.7952474,56.83821615,56.87141927,56.9235026,56.83398438,56.78548177,56.70670573,56.64550781,56.70833333,56.69856771,56.68945313,56.80924479,56.89746094,56.890625,56.89257813,57.04296875,57.14029948,57.19954427,57.24869792,57.30045573,57.34309896,57.43815104,57.54947917,57.73177083,57.67382813,57.76106771,57.58854167,57.56542969,57.35677083,57.30957031,57.30957031,57.14192708,57.16699219,57.26302083,57.27766927,57.43815104,57.4280599,57.51953125,57.57389323,57.60677083,57.59635417,57.57714844,57.68945313,57.62727865,57.67708333,57.75846354,57.77018229,57.7890625,57.73893229,57.55013021,57.40234375,57.25390625,57.20279948,56.95019531,56.83984375,56.83203125,56.76367188,56.66959635,56.61295573,56.59700521,56.62760417,56.6311849,56.6546224,56.60709635,56.5485026,56.60742188,56.64941406,56.72591146,56.78971354,56.86686198,56.88997396,56.82421875,56.68033854,56.6936849,56.64518229,56.76627604,56.83854167,56.8531901,56.86197917,56.97135417,57.01041667,57.02701823,56.98502604,57.05143229,57.02636719,57.01269531,56.96061198,56.94108073,56.89908854,56.8811849,56.78548177,56.76627604,56.7125651,56.58333333,56.36425781,56.3343099,56.25390625,56.24641927,56.22395833,56.36002604,56.36067708,56.46321615,56.39257813,56.39811198,56.39355469,56.51888021,56.60286458,56.65169271,56.71679688,56.77050781,56.78548177,56.78059896,56.79557292,56.7985026,56.83821615,56.78710938,56.61783854,56.57063802,56.53776042,56.41764323,56.46158854,56.49283854,56.50423177,56.546875,56.58235677,56.57226563,56.58496094,56.55240885,56.58268229,56.5703125,56.52083333,56.5218099,56.44173177,56.47167969,56.48209635,56.39746094,56.41145833,56.3922526,56.26497396,56.20638021,56.04264323,56.04231771,55.96940104,55.96875,55.97363281,55.98958333,56.00097656,55.94661458,55.92773438,55.9671224,55.86295573,55.84244792,55.86653646,55.7734375,55.77636719,55.8577474,55.85351563,55.89941406,55.93196615,55.91536458,55.78417969,55.72135417,55.58626302,55.66471354,55.66145833,55.67610677,55.66861979,55.78255208,55.84179688,55.88964844,55.9078776,55.97786458,56.02864583,56.21549479,56.19563802,56.34016927,56.31770833,56.3844401,56.49153646,56.50065104,56.42871094,56.46972656,56.36816406,56.22070313,56.0875651,56.0625,55.92122396,55.84635417,55.90722656,55.87304688,55.88476563,55.88411458,55.87109375,55.92578125,55.88932292,55.93977865,55.84798177,55.88509115,55.84179688,55.95019531,56.01236979,56.05175781,55.99186198,56.0764974,56.0452474,55.92871094,55.83528646,55.78971354,55.80143229,55.80501302,55.81445313,55.88541667,55.92740885,55.9280599,55.90332031,56.01692708,56.0390625,56.0719401,56.05566406,56.09798177,56.11197917,56.12532552,56.16048177,56.1953125,56.20410156,56.18522135,56.16666667,56.05175781,55.87630208,55.9156901,55.89615885,55.88704427,55.93196615,56.01171875,56.1656901,56.17545573,56.25878906,56.39160156,56.46191406,56.49967448,56.49511719,56.68196615,56.70377604,56.87923177,56.97298177,57.03841146,57.10872396,57.14518229,57.12792969,57.16015625,56.97623698,56.91666667,56.84700521,56.88639323,56.8811849,56.92708333,57.02115885,57.0546875,57.06510417,57.09179688,57.09895833,57.2985026,57.39160156,57.51236979,57.63476563,57.71484375,57.79492188,57.92871094,57.20507813,56.86132813,56.86263021,56.89876302,56.82682292,56.86165365,56.96875,57.01367188,57.05664063,57.11165365,57.10416667,57.10286458,56.89941406,56.92936198,56.90332031,56.92773438,56.84505208,56.97981771,56.99967448,57.00423177,57.02376302,56.99967448,56.9280599,56.9235026,56.94954427,56.90234375,56.7985026,56.69075521,56.72460938,56.83235677,56.92285156,56.97460938,57.04231771,57.05794271,57.04720052,57.03157552,56.99641927,57.02473958,56.9827474,56.93066406,56.88736979,56.89290365,56.90397135,56.828125,56.82161458,56.86783854,56.89941406,56.94075521,56.89029948,56.73079427,56.65169271,56.49804688,56.30501302,56.10970052,55.91471354,55.83561198,55.79264323,55.79557292,55.75878906,55.72591146,55.59570313,55.42675781,55.35807292,55.3219401,55.42089844,55.42122396,55.50065104,55.57063802,55.63085938,55.48535156,55.31803385,55.1311849,55.08365885,54.86653646,54.84505208,54.81380208,54.79785156,54.88736979,54.88378906,54.94628906,54.89746094,54.89160156,54.83789063,54.81575521,54.74088542,54.73014323,54.70377604,54.65136719,54.6171875,54.58072917,54.57128906,54.42838542,54.31315104,54.31901042,54.29589844,54.296875,54.30794271,54.43522135,54.41959635,54.52246094,54.64453125,54.63769531,54.73242188,54.62988281,54.61979167,54.7047526,54.71549479,54.76139323,54.82096354,54.86295573,54.77897135,54.7985026,54.84928385,54.77604167,54.6500651,54.609375,54.5234375,54.53808594,54.51302083,54.47851563,54.57845052,54.60026042,54.55696615,54.63183594,54.54296875,54.55533854,54.57226563,54.64257813,54.68977865,54.67871094,54.65917969,54.69498698,54.70898438,54.734375,54.74251302,54.67513021,54.53157552,54.40625,54.39029948,54.32356771,54.28125,54.35123698,54.46419271,54.53320313,54.54003906,54.53417969,54.60351563,54.63313802,54.66634115,54.76985677,54.71549479,54.70865885,54.68847656,54.74707031,54.69628906,54.71061198,54.72526042,54.73730469,54.64876302,54.53092448,54.41861979,54.40559896,54.45703125,54.55859375,54.61035156,54.74023438,54.82942708,54.91438802,54.93001302,54.98470052,54.89778646,54.86588542,54.88183594,54.89811198,54.81608073,54.80761719,54.73665365,54.69303385,54.74739583,54.78352865,54.87760417,54.73925781,54.65592448,54.67871094,54.61263021,54.66764323,54.76171875,54.92675781,55.03580729,55.15169271,55.20019531,55.26920573,55.24446615,55.31575521,55.19563802,55.23111979,55.21028646,55.1546224,55.08691406,55.06477865,54.98079427,55.00488281,55.0390625,54.91894531,54.67578125,54.56347656,54.55566406,54.50455729,54.53515625,54.57486979,54.61002604,54.6328125,54.58789063,54.6656901,54.71484375,54.73079427,54.77994792,54.81835938,54.89811198,54.90169271,54.84375,54.93196615,54.95410156,54.94661458,54.90299479,54.81738281,54.67285156,54.51171875,54.4358724,54.4296875,54.41341146,54.47721354,54.51953125,54.54752604,54.50032552,54.52571615,54.49446615,54.53483073,54.50846354,54.50683594,54.48763021,54.47428385,54.41764323,54.43945313,54.47363281,54.47753906,54.48632813,54.39973958,54.296875,54.13411458,53.97981771,53.97460938,53.7594401,54.52832031,55.07682292,55.27669271,55.19759115,55.22298177,55.19921875,55.25065104,55.29101563,55.33723958,55.31770833,55.33007813,55.23046875,55.30143229,55.34179688,55.36914063,55.39648438,55.54492188,55.56380208,55.4358724,55.27864583,55.22688802,55.12076823,55.18066406,55.21777344,55.26985677,55.4375,55.34277344,55.48632813,55.52278646,55.66503906,55.67513021,55.71484375,55.72102865,55.77539063,55.82779948,55.83984375,55.83919271,55.91438802,55.90625,55.80078125,55.64388021,55.53808594,55.49934896,55.5061849,55.54296875,55.56542969,55.68652344,55.70279948,55.67057292,55.65690104,55.74674479,55.76367188,55.85579427,55.77278646,55.83333333,55.70540365,55.70117188,55.73046875,55.77669271,55.70019531,55.68196615,55.70865885,55.70442708,55.51302083,55.40494792,55.38964844,55.33951823,55.32877604,55.39257813,55.38769531,55.38964844,55.43977865,55.48144531,55.4514974,55.53710938,55.59440104,55.67903646,55.56640625,55.62532552,55.66308594,55.71549479,55.69759115,55.71809896,55.54003906,55.59667969,55.46549479,55.27148438,55.21940104,55.17285156,55.10416667,55.18261719,55.41080729,55.4358724,55.50911458,55.49707031,55.47753906,55.59049479,55.64095052,55.67740885,55.62760417,55.73795573,55.71028646,55.75065104,55.76204427,55.7125651,55.75130208,55.82454427,55.63574219,55.53841146,55.45540365,55.49088542,55.5078125,55.54361979,55.60188802,55.7109375,55.6813151,55.72395833,55.72135417,55.79036458,55.79101563,55.77246094,55.83170573,55.90071615,55.91438802,55.91373698,55.96126302,55.83626302,55.87141927,55.85839844,55.60514323,55.60839844,55.44921875,55.45768229,55.37402344,55.37239583,55.46451823,55.48372396,55.48470052,55.546875,55.44563802,55.56608073,55.53190104,55.5999349,55.57128906,55.63053385,55.62174479,55.65494792,55.58951823,55.67675781,55.60514323,55.68001302,55.54720052,55.41829427,55.28255208,55.29720052,55.26985677,55.30078125,55.30371094,55.3733724,55.38736979,55.41178385,55.40104167,55.47200521,55.41992188,55.4827474,55.44856771,55.51139323,55.53971354,55.68164063,55.75911458,55.86783854,55.95768229,55.98144531,55.94238281,55.85677083,55.76790365,55.77604167,55.765625,55.84440104,55.84082031,55.90950521,55.97200521,56.00911458,55.95963542,55.99511719,56.06542969,56.07389323,56.07617188,56.18033854,56.12825521,56.10253906,56.0686849,56.1328125,56.14095052,56.10970052,56.03873698,55.8984375,55.71777344,55.63085938,55.66796875,55.65722656,55.61458333,55.65527344,55.70638021,55.80664063,55.69010417,55.65332031,55.60970052,55.61067708,55.63248698,55.67252604,55.72753906,55.71419271
56.32552083,56.61751302,56.65885417,56.68652344,56.57226563,56.72070313,56.75325521,56.82910156,56.73893229,56.90201823,56.93164063,57.01041667,56.97102865,57.21126302,57.15527344,57.03678385,56.78776042,56.5139974,56.33561198,56.27669271,56.26953125,56.38736979,56.42871094,56.50683594,56.56217448,56.56770833,56.56380208,56.66048177,56.67154948,56.70605469,56.83886719,56.86132813,56.84082031,56.86393229,56.87402344,56.89615885,56.79492188,56.46842448,56.21484375,55.98990885,55.9453125,56.00358073,56.03613281,56.15429688,56.26171875,56.3359375,56.31217448,56.30078125,56.23958333,56.37467448,56.34667969,56.42089844,56.39973958,56.45214844,56.41471354,56.44596354,56.44563802,56.42513021,56.28125,55.99576823,55.68359375,55.63704427,55.70833333,55.70670573,55.77311198,55.88867188,55.9938151,56.11295573,56.0953776,56.07421875,56.13085938,56.1155599,56.24739583,56.28678385,56.2203776,56.02864583,55.98567708,55.97363281,56.06738281,56.19889323,56.18098958,56.16894531,56.08007813,56.04101563,56.07552083,56.11295573,56.07421875,56.07161458,56.10026042,56.04394531,56.19954427,56.09798177,56.171875,56.14029948,56.1702474,56.10546875,56.09570313,56.17740885,55.91308594,55.49316406,55.13769531,54.97363281,54.87792969,54.84440104,54.9280599,55.10514323,55.18326823,55.14453125,55.19596354,55.20377604,55.17252604,55.18326823,55.25292969,55.2750651,55.37207031,55.47916667,55.5703125,55.58854167,55.4983724,55.41438802,55.05989583,54.83496094,54.71419271,55.36328125,55.21126302,55.70800781,55.9235026,56.06542969,56.13151042,56.09114583,56.13997396,56.12467448,56.23339844,56.29003906,56.34570313,56.39127604,56.2734375,56.3186849,56.3889974,56.43359375,56.32096354,56.15690104,55.82714844,55.52864583,55.46679688,55.4280599,55.48014323,55.55729167,55.74283854,55.76171875,55.77441406,55.75651042,55.75716146,55.75260417,55.74609375,55.86425781,55.81184896,55.87565104,55.91861979,55.93684896,55.953125,55.95800781,55.765625,55.56673177,55.38053385,55.32421875,55.29361979,55.26757813,55.37076823,55.48372396,55.47395833,55.44661458,55.51888021,55.5485026,55.61816406,55.58365885,55.7093099,55.7249349,55.69759115,55.73860677,55.78320313,55.91503906,55.78645833,55.5921224,55.29199219,55.15234375,54.99544271,55.00488281,55.03710938,55.18815104,55.37304688,55.24804688,55.37858073,55.38216146,55.4781901,55.53125,55.50423177,55.57356771,55.5921224,55.62630208,55.57063802,55.70638021,55.70703125,55.69986979,55.49902344,55.19563802,55.0452474,55.02766927,55.01041667,54.98567708,54.92610677,54.94433594,55.25195313,55.21158854,55.17382813,55.24869792,55.26106771,55.28059896,55.30240885,55.38248698,55.43229167,55.47460938,55.52278646,55.55761719,55.54361979,55.31445313,55.10058594,54.91894531,54.88216146,54.80371094,54.90071615,55.23502604,55.30436198,55.36002604,55.34375,55.4469401,55.42252604,55.46516927,55.45865885,55.52539063,55.59244792,55.72330729,55.72851563,55.78580729,55.82714844,55.75227865,55.5,55.06542969,55.03190104,55.10644531,55.04166667,55.13736979,55.22233073,55.27832031,55.30924479,55.36816406,55.36816406,55.40266927,55.45345052,55.46484375,55.44889323,55.4781901,55.54296875,55.48763021,55.44075521,55.41341146,55.2734375,55.08789063,54.91048177,54.72298177,54.35807292,54.45084635,54.42513021,54.5530599,54.61458333,54.71223958,54.7047526,54.7125651,54.72851563,54.81119792,54.85123698,54.84895833,54.98893229,54.8375651,54.90690104,54.93457031,55.14257813,55.08789063,55.00358073,54.77311198,54.75846354,54.43001302,54.46126302,54.49153646,54.60677083,54.68684896,54.74739583,54.79654948,54.8421224,54.84114583,55.12239583,55.17936198,55.17480469,55.25390625,55.2516276,55.29589844,55.36588542,55.41113281,55.34407552,55.3186849,55.06282552,54.9827474,54.90983073,54.95670573,54.98925781,55.07682292,55.17382813,55.25553385,55.25130208,55.28841146,55.28938802,55.35091146,55.45703125,55.46354167,55.46289063,55.53678385,55.60742188,55.50683594,55.51953125,55.56347656,55.42545573,55.16080729,55.0328776,54.91699219,54.81542969,54.80045573,54.87402344,54.97916667,55.05110677,55.06152344,55.06738281,55.09863281,55.11686198,55.19661458,55.27994792,55.32714844,55.28352865,55.37955729,55.44238281,55.4453125,55.4921875,55.4140625,55.24707031,55.05208333,54.7890625,54.8219401,54.80240885,54.82682292,54.8125,54.91764323,54.96907552,54.98014323,55.0296224,55.03320313,55.05957031,55.1468099,55.19173177,55.1953125,55.29720052,55.2952474,55.32389323,55.35611979,55.40429688,55.27864583,55.10253906,55.03645833,54.95800781,54.97005208,54.99316406,55.14290365,55.26041667,55.34082031,55.38574219,55.47330729,55.43717448,55.49479167,55.56998698,55.52864583,55.65364583,55.70833333,55.67675781,55.70052083,55.765625,55.86914063,55.84114583,55.65332031,55.34798177,55.265625,55.21875,55.16080729,55.13085938,55.25130208,55.28776042,55.4000651,55.3844401,55.43261719,55.42057292,55.48014323,55.50390625,55.56347656,55.61751302,55.68782552,55.70572917,55.74674479,55.68164063,55.65332031,55.70084635,55.48958333,55.24609375,55.15559896,55.07682292,55.12955729,55.17122396,55.18066406,55.25520833,55.33658854,55.3577474,55.42675781,55.40332031,55.50032552,55.53385417,55.56770833,55.58919271,55.55110677,55.63085938,55.65690104,55.55403646,55.58170573,55.54264323,55.30859375,55.14322917,55.08658854,55.09667969,54.97753906,55.05371094,55.13378906,55.2093099,55.2906901,55.26529948,55.26790365,55.33365885,55.34700521,55.43066406,55.43880208,55.48893229,55.46354167,55.51106771,55.51334635,55.5094401,55.4983724,55.49576823,55.29752604,55.15169271,55.07063802,55.04557292,55.09179688,55.04947917,55.19466146,55.2952474,55.24674479,55.28320313,55.3375651,55.33268229,55.35221354,55.38248698,55.40104167,55.37858073,55.49414063,55.41829427,55.4827474,55.484375,55.52539063,55.39973958,55.21744792,55.01595052,54.81445313,54.78873698,54.85286458,54.92936198,55.00260417,54.9671224,55.01692708,55.05859375,55.14941406,55.14550781,55.16080729,55.14908854,55.2249349,55.27799479,55.28092448,55.32747396,55.3733724,55.29557292,55.35221354,55.2561849,55.11588542,54.91601563,54.82063802,54.8046875,54.84440104,54.8515625,54.96972656,55.03352865,55.03027344,55.01432292,55.04817708,55.04915365,55.05859375,55.12890625,55.1656901,55.16438802,55.16634115,55.13216146,55.17122396,55.19596354,55.19498698,55.16438802,55.05273438,54.92057292,54.78092448,54.69238281,54.72851563,54.86653646,54.89192708,54.95345052,55.03092448,54.98046875,54.99609375,54.95996094,55.0686849,55.1389974,55.09863281,55.17838542,55.14746094,55.20117188,55.18457031,55.17773438,55.2281901,55.21419271,55.15657552,54.99479167,54.92382813,54.94921875,54.92252604,54.92122396,55.10742188,55.10384115,55.10611979,55.1155599,55.12272135,55.14746094,55.19498698,55.24804688,55.28841146,55.21777344,55.24251302,55.28580729,55.28808594,55.23795573,55.23339844,55.24576823,55.06803385,54.8889974,54.80859375,54.76041667,54.75260417,54.82063802,54.89257813,54.9625651,54.92252604,54.92513021,54.99641927,55.00195313,55.05208333,55.03515625,55.08658854,55.11067708,55.09830729,55.04915365,55.17154948,55.08789063,55.17285156,55.10970052,55.04752604,54.89322917,54.70377604,54.73990885,54.64290365,54.73111979,54.77473958,54.89322917,54.97428385,54.92057292,54.9078776,54.95670573,54.9124349,54.98958333,54.94042969,54.9781901,55.00227865,55.04492188,55.00520833,55.00032552,54.93880208,54.89941406,54.76334635,54.67480469,54.5686849,54.45833333,54.28873698,54.27441406,54.37825521,54.56998698,54.6344401,54.82486979,54.87695313,54.9375,54.99772135,54.93554688,54.9827474,54.94986979,55.0452474,55.08854167,55.10872396,55.07259115,55.046875,54.98144531,54.96061198,54.76432292,54.67903646,54.61002604,54.68652344,54.65332031,54.67154948,54.73209635,54.86002604,54.96126302,55.01464844,55.0921224,55.12011719,55.16731771,55.19921875,55.22786458,55.1624349,55.13053385,55.0843099,55.08170573,55.1328125,55.08007813,55.02929688,54.83300781,54.70019531,54.58561198,54.66503906,54.48730469,54.51953125,54.47688802,54.5061849,54.4453125,54.42838542,54.2171224,54.24479167,54.24739583,54.30273438,54.29394531,54.46875,54.55566406,54.54296875,54.38020833,54.38183594,54.34472656,54.04557292,53.83789063,53.578125,53.42089844,53.45279948,53.35026042,53.40950521,53.36490885,53.3610026,53.34244792,53.36783854,53.40494792,53.36621094,53.32779948,53.36783854,53.36458333,53.48535156,53.43945313,53.47330729,53.54492188,53.55045573,53.49316406,53.52994792,53.4358724,53.21484375,53.06770833,53.02604167,53.02050781,53.07226563,53.17252604,53.24316406,53.37174479,53.4469401,53.43359375,53.52636719,53.56705729,53.56119792,53.59733073,53.66178385,53.71972656,53.7828776,53.82226563,53.89941406,53.86588542,53.80240885,53.67773438,53.4905599,53.35742188,53.38736979,53.33919271,53.3811849,53.4375,53.54492188,53.53417969,53.6578776,53.6891276,53.71126302,53.77376302,53.83951823,53.83886719,53.98339844,53.97884115,54.10839844,54.07389323,54.1702474,54.15071615,54.23925781,54.12044271,53.93066406,53.70638021,53.66113281,53.56998698,53.54720052,53.52701823,53.68098958,53.76595052,53.75748698,53.77897135,53.82161458,53.84733073,53.93782552,53.95638021,53.94759115,53.89257813,53.95052083,54.04459635,54.06542969,54.02018229,54.1077474,54.0641276,53.91048177,53.765625,53.63313802,53.5563151,53.55989583,53.61458333,53.69042969,53.70703125,53.7734375,53.73404948,53.76106771,53.77376302,53.78352865,53.80533854,53.83170573,53.87272135,53.87630208,53.88378906,53.9469401,53.91276042,53.94270833,53.8844401,53.83007813,53.58138021,53.48665365,53.49348958,53.49772135,53.55403646,53.64485677,53.68847656,53.765625,53.78092448,53.80013021,53.74023438,53.81803385,53.81510417,53.90169271,53.8984375,53.95572917,53.95052083,54.015625,54.13736979,54.11686198,53.98567708,53.78580729,53.62988281,53.58072917,53.51627604,53.40755208,53.4469401,53.453125,53.578125,53.51106771,53.47265625,53.40136719,53.40071615,53.4280599,53.35677083,53.41438802,53.39290365,53.4078776,53.48209635,53.41373698,53.38020833,53.46972656,53.39355469,53.17154948,53.08951823,52.94433594,52.9453125,52.8108724,52.80859375,52.83821615,52.93717448,53.10058594,53.29134115,53.39322917,53.38867188,53.45572917,53.49902344,53.48632813,53.58300781,53.6311849,53.69173177,53.81933594,53.86067708,53.98893229,53.99641927,53.82584635,53.66699219,53.54785156,53.53938802,53.50097656,53.59309896,53.66796875,53.81933594,53.8453776,53.89095052,53.9140625,53.95898438,54.04817708,54.11653646,54.14713542,54.2405599,54.29329427,54.33723958,54.44173177,54.45019531,54.50358073,54.4156901,54.31803385,54.18977865,54.13834635,54.16048177,54.16276042,54.2281901,54.35221354,54.4547526,54.4921875,54.48990885,54.62597656,54.65234375,54.72526042,54.75455729,55.00097656,55.07259115,55.07096354,55.03841146,55.10221354,55.15234375,55.23372396,55.03808594,54.81022135,54.61295573,54.5172526,54.26920573,54.15266927,54.17643229,54.26204427,54.25195313,54.20052083,54.13671875,54.06770833,54.08203125,54.02311198,53.95019531,53.98893229,53.99804688,53.84114583,53.91927083,53.89127604,53.83723958,53.73404948,53.68977865,53.38802083,53.21516927,53.06022135,53.10839844,53.10546875,53.23828125,53.37402344,53.52636719,53.53320313,53.55273438,53.6110026,53.59700521,53.61197917,53.5686849,53.63085938,53.70052083,53.72916667,53.77050781,53.86946615,53.85123698,53.8421224,53.82486979,53.66894531,53.48860677,53.37141927,53.41536458,53.3421224,53.46158854,53.53483073,53.52050781,53.58072917,53.62304688,53.60807292,53.66308594,53.74511719,53.72786458,53.75585938,53.75260417,53.66992188,53.73632813,53.71875,53.72786458,53.79459635,53.65071615,53.54947917,53.34016927,53.3030599,53.28352865,53.28255208,53.29427083,53.3766276,53.39550781,53.45442708,53.38736979,53.46289063,53.47526042,53.4593099,53.59277344,53.51171875,53.56510417,53.54329427,53.51302083,53.57356771,53.51595052,53.49674479,53.34082031,53.1266276,52.94726563,52.87369792,52.57519531,52.54394531,52.58561198,52.82259115,52.9235026,53.03417969,53.1031901,53.35221354,53.44466146,53.41341146,53.38964844,53.44596354,53.3922526,53.42610677,53.46061198,53.48470052,53.46549479,53.55729167,53.42122396,53.29166667,53.14941406,53.10514323,53.08854167,52.86328125,52.83919271,52.9609375,52.9781901,53.28352865,53.35384115,53.31933594,53.34244792,53.37369792,53.44628906,53.46647135,53.54101563,53.52604167,53.49511719,53.46940104,53.59407552,53.58951823,53.44596354,53.20540365,53.0999349,53.0452474,52.83040365,52.79134115,52.85546875,52.97200521,53.05891927,53.30110677,53.27441406,53.31119792,53.36067708,53.35221354,53.40397135,53.33691406,53.37630208,53.41764323,53.43717448,53.39746094,53.36914063,53.40266927,53.32356771,53.11588542,52.96223958,52.70084635,52.6858724,52.70279948,52.70377604,52.74739583,52.82226563,52.88964844,52.89648438,52.99967448,53.24348958,53.37695313,53.32356771,53.4000651,53.46386719,53.37792969,53.43294271,53.48763021,53.48763021,53.52311198,53.39811198,53.1735026,53.06380208,53.09179688,52.92838542,52.84375,52.90494792,53.11848958,53.28580729,53.39029948,53.34049479,53.40201823,53.47721354,53.49251302,53.56510417,53.6311849,53.71679688,53.81998698,53.8889974,53.94661458,53.97005208,54.11783854,53.99739583,53.7952474,53.76920573,53.69238281,53.70996094,53.7171224,53.72753906,53.8655599,53.93164063,53.90625,53.89941406,53.99902344,53.98111979,53.96158854,53.91634115,53.98014323,54.02148438,54.00651042,53.98893229,54.04459635,54.03873698,54.04947917,53.89550781,53.8828125,53.80566406,53.82519531,53.83984375,53.84798177,53.88085938,53.8984375,53.96940104,53.96875,53.94140625,53.88671875,53.9202474,53.95605469,53.95377604,54.04427083,53.97428385,53.97786458,53.97981771,53.97330729,53.98697917,53.87467448,53.64322917,53.42447917,53.28678385,53.2125651,53.17057292,53.13802083,53.19954427,53.21582031,53.27864583,53.3141276,53.35058594,53.40071615,53.36328125,53.36360677,53.31119792,53.33300781,53.37011719,53.40169271,53.42317708,53.45638021,53.39778646,53.40657552,53.3531901,53.29589844,53.26302083,53.359375,53.37825521,53.53385417,53.64453125,53.76692708,53.63704427,53.66276042,53.54557292,53.49348958,53.47102865,53.43326823,53.45247396,53.46972656,53.41438802,53.41276042,53.37076823,53.39941406,53.4124349,53.29752604,53.04394531,52.9609375,52.78580729,52.45768229,52.45052083,52.35677083,52.4781901,52.47298177,52.390625,52.46354167,52.55729167,52.67122396,52.62825521,52.76204427,52.81575521,52.828125,52.86458333,52.94824219,52.96028646,53.00911458,53.03841146,53.22395833,52.99479167,52.70247396,52.49707031,52.44661458,52.45377604,52.57259115,52.63183594,52.6891276,52.71289063,52.7578125,52.73535156,52.8063151,52.89029948,52.99251302,52.94075521,52.9983724,53.04394531,53.05240885,53.03938802,53.35579427,53.4358724,53.40332031,53.234375,53.13867188,52.95279948,52.9547526,52.92871094,52.99967448,53.02115885,53.21451823,53.36946615,53.40917969,53.40852865,53.4827474,53.46614583,53.48209635,53.46354167,53.484375,53.46126302,53.43326823,53.44954427,53.4140625,53.39583333,53.265625,53.07063802,52.95377604,52.70540365,52.63541667,52.60904948,52.66503906,52.81673177,52.8671875,52.99902344,52.98925781,53.28255208,53.09765625,53.3125,53.37207031,53.38671875,53.35351563,53.38053385,53.41634115,53.36621094,53.39095052,53.33789063,53.21126302,52.99088542,52.89290365,52.57356771,52.53841146,52.48990885,52.57356771,52.70507813,52.74869792,52.75976563,52.83528646,52.85026042,52.88574219,52.90429688,53.06282552,53.27311198,53.37955729,53.37923177,53.34016927,53.34114583,53.36425781,53.265625,53.03678385,52.91048177,52.55501302,52.38313802,52.41796875,52.41373698,52.56347656,52.56152344,52.63020833,52.62369792,52.59830729,52.63346354,52.75260417,52.67838542,52.78645833,52.87109375,52.82682292,52.85026042,52.97070313,52.99283854,53.26464844,53.20507813,53.01627604,52.78027344,52.56315104,52.42545573,52.5016276,52.48372396,52.546875,52.58235677,52.4765625,52.51204427,52.52311198,52.42578125,52.50651042,52.49967448,52.53873698,52.5328776,52.49414063,52.46028646,52.4436849,52.34700521,52.34863281,52.23535156,52.01757813,52.50358073,52.98860677,52.95345052,52.82389323,52.83170573,52.90690104,52.83886719,52.87109375,52.88574219,52.93782552,52.96354167,53.01595052,53.03027344,53.09016927,52.99283854,53.07942708,53.06282552,53.15039063,53.22591146,53.18522135,53.04459635,52.88476563,52.77539063,52.68977865,52.65071615,52.65755208,52.66796875,52.73828125,52.75260417,52.81510417,52.78157552,52.78320313,52.7952474,52.84342448,52.7890625,52.84016927,52.81184896,52.84928385,52.75813802,52.78450521,52.84830729,52.83300781,52.6780599,52.48795573,52.41015625,51.93359375,51.8828125,51.94954427,52.0250651,52.11490885,52.1936849,52.20572917,52.20670573,52.21451823,52.26595052,52.32910156,52.33528646,52.36360677,52.32063802,52.77669271,52.83365885,52.86035156,52.86067708,52.36751302,52.58072917,52.3984375,51.93815104,51.90364583,51.83854167,51.92415365,51.95279948,52.03352865,52.07096354,52.0764974,52.12239583,52.10644531,52.18945313,52.22005208,52.26757813,52.24121094,52.28483073,52.31315104,52.29361979,52.40690104,52.33365885,52.2796224,52.06380208,51.95377604,51.91080729,51.87630208,51.92708333,51.95898438,52.01595052,52.13802083,52.17057292,52.16959635,52.12304688,52.23925781,52.31282552,52.31380208,52.33658854,52.2421875,52.29231771,52.32096354,52.2639974,52.33658854,52.25325521,52.06608073,51.89160156,51.75227865,51.71940104,51.49088542,51.47330729,51.52473958,51.66731771,51.71191406,51.69173177,51.66796875,51.72786458,51.63704427,51.71126302,51.70410156,51.72949219,51.71321615,51.7125651,51.81673177,52.015625,52.03255208,52.06933594,51.88704427,51.68294271,51.49707031,51.42154948,51.3984375,51.51334635,51.63671875,51.68619792,51.80175781,51.76139323,51.70117188,51.7125651,51.78027344,51.98339844,52.00813802,51.95084635,51.94108073,51.91959635,51.96354167,51.94205729,51.94010417,51.80794271,51.55729167,51.14941406,51.13541667,50.99934896,51.0546875,51.15885417,51.26204427
36.04720052,36.46940104,36.83007813,36.96679688,36.95214844,36.66145833,36.1969401,35.89973958,35.47070313,35.26041667,35.16959635,35.19824219,35.20638021,35.30208333,35.38053385,35.50520833,35.49772135,35.67773438,35.76367188,35.87109375,35.88020833,36.23177083,36.27115885,36.36165365,36.39648438,36.50097656,36.58170573,36.66666667,36.62467448,36.90527344,36.9905599,37.04882813,36.94466146,36.71777344,36.28255208,35.94205729,35.47851563,35.21451823,35.046875,34.99869792,35.06770833,35.14941406,35.22753906,35.37076823,35.39355469,35.49576823,35.5250651,35.67154948,35.75130208,35.88346354,35.91438802,36.17936198,36.26204427,36.34277344,36.38606771,36.48209635,36.52441406,36.63932292,36.67285156,36.90852865,36.96321615,36.91373698,36.5875651,36.18554688,35.65266927,35.29915365,34.97167969,34.890625,34.8515625,34.52115885,34.5452474,34.77018229,35.22688802,35.37239583,35.41210938,35.49544271,35.57845052,35.72298177,35.80273438,36.00292969,36.16373698,36.28580729,36.35970052,36.45833333,36.5172526,36.65950521,36.72753906,36.80338542,36.95345052,37.21972656,37.0999349,36.89973958,36.42936198,36.26692708,35.8655599,35.79427083,35.62792969,35.82877604,35.90266927,36.08951823,36.29915365,36.52734375,36.59375,36.81022135,36.83821615,37.21289063,37.40397135,37.74283854,37.83984375,38.3922526,38.4703776,38.63541667,38.67545573,38.79166667,38.82161458,38.91145833,39.14583333,39.17220052,39.0172526,38.66210938,38.20182292,37.78190104,37.4358724,36.81184896,36.58789063,36.6110026,36.55761719,36.68652344,36.72102865,36.98242188,37.03450521,37.11263021,37.19563802,37.33723958,37.40169271,37.5139974,37.61328125,37.72070313,38.25423177,38.37825521,38.45768229,38.55729167,38.64583333,38.69498698,38.71647135,38.93033854,38.90885417,38.57910156,38.17057292,37.72558594,37.36165365,36.76334635,36.54134115,36.45800781,36.46907552,36.5953776,36.7171224,36.84570313,37.03645833,37.15136719,37.13574219,37.34667969,37.37044271,37.53450521,37.64713542,38.29036458,38.41373698,38.59895833,38.62272135,38.71061198,38.75846354,38.93391927,39,38.9358724,38.62239583,38.23730469,37.70768229,37.45865885,36.8421224,36.67057292,36.5686849,36.61002604,36.7171224,36.95182292,37.00227865,37.10579427,37.17643229,37.34375,37.35807292,37.43619792,37.484375,37.60742188,37.53580729,38.16861979,38.42057292,38.55696615,38.59602865,38.68164063,38.7672526,38.75032552,38.84082031,38.73404948,38.30598958,37.79720052,37.48502604,36.88541667,36.57226563,36.49121094,36.36067708,36.40169271,36.53938802,36.73470052,36.78190104,37.03678385,37.12467448,37.27311198,37.34505208,37.47200521,37.50423177,37.61816406,37.63704427,38.18294271,38.26888021,38.36686198,38.35026042,38.28157552,38.17382813,38.13346354,37.88216146,37.49804688,36.58170573,36.19759115,35.7594401,35.59244792,35.36686198,35.37011719,35.53417969,35.66959635,35.76302083,35.8297526,35.98697917,36.27636719,36.73567708,37.06054688,37.1813151,37.58300781,37.82779948,37.98079427,38.40722656,38.52766927,38.60253906,38.79947917,38.84082031,38.92578125,39.17382813,39.05664063,38.71289063,38.24479167,37.82324219,37.54329427,36.89420573,36.74511719,36.61751302,36.5374349,36.63085938,36.70442708,36.796875,36.94726563,37.01953125,37.05924479,37.22753906,37.33072917,37.44303385,37.62988281,37.7516276,38.31445313,38.45247396,38.49804688,38.48795573,38.53776042,38.51529948,38.546875,38.50227865,38.1578776,37.72721354,37.46809896,36.78678385,36.45996094,36.24186198,36.26660156,36.34765625,36.50358073,36.67447917,36.8375651,37.04134115,37.21451823,37.30501302,37.48111979,37.51855469,37.59179688,37.73567708,38.28710938,38.40657552,38.50716146,38.55859375,38.57291667,38.61035156,38.67317708,38.68619792,38.70442708,38.40266927,38.16145833,37.76009115,37.3889974,36.79264323,36.62858073,36.62532552,36.57486979,36.69108073,36.8655599,37.00455729,37.12955729,37.19075521,37.29231771,37.37207031,37.47363281,37.53776042,37.61197917,37.66373698,38.22135417,38.40266927,38.49186198,38.54199219,38.62695313,38.70084635,38.76041667,38.87174479,38.69856771,38.30664063,37.86621094,37.55403646,36.9827474,36.8375651,36.76009115,36.86783854,36.99251302,37.09505208,37.17545573,37.2249349,37.3141276,37.3733724,37.52994792,37.66861979,37.75976563,38.23893229,38.41829427,38.50683594,38.55013021,38.51106771,38.56933594,38.73046875,38.79882813,38.93880208,38.9983724,38.7874349,38.44173177,38.00455729,37.54427083,36.91438802,36.79882813,36.60123698,36.70345052,36.68847656,36.91764323,37.0374349,37.13736979,37.19661458,37.3655599,37.45214844,37.55240885,37.57617188,37.75292969,38.30924479,38.42057292,38.49414063,38.57714844,38.6031901,38.65917969,38.65820313,38.71028646,38.76920573,38.87727865,38.53645833,38.0390625,37.5921224,37.41731771,36.80696615,36.69921875,36.67285156,36.875,37.00390625,37.18001302,37.28450521,37.38411458,37.42643229,37.55045573,37.64713542,38.17057292,38.28483073,38.43001302,38.47265625,38.55826823,38.56835938,38.65625,38.58203125,38.60188802,38.64973958,38.90559896,38.78678385,38.36848958,37.8531901,37.46647135,36.91080729,36.90559896,36.80045573,36.84635417,36.92252604,36.96516927,36.99739583,37.11425781,37.13085938,37.23893229,37.26139323,37.30533854,37.34863281,37.46972656,37.46744792,37.56803385,37.54720052,38.0374349,37.61328125,37.8531901,38.40917969,38.609375,38.66992188,38.72949219,38.56380208,38.24869792,37.80143229,37.4983724,36.80533854,36.64095052,36.62044271,36.52539063,36.5843099,36.63867188,36.54817708,36.33789063,36.1468099,36.17285156,36.19140625,36.35970052,36.453125,36.640625,36.80110677,36.96419271,37.14095052,37.52604167,37.76595052,38.06575521,38.60677083,38.82845052,38.88834635,38.84407552,38.65169271,38.27376302,37.82845052,37.50227865,36.88411458,36.72851563,36.7421875,36.91145833,37.05696615,37.31835938,37.47363281,37.56770833,37.63606771,37.77636719,38.27604167,38.41959635,38.43619792,38.59505208,38.63704427,38.70865885,38.70540365,38.95768229,39.0139974,39.08398438,39.13606771,39.19628906,39.09049479,38.80957031,38.44661458,38.04459635,37.68684896,37.10123698,36.95735677,36.98958333,37.05761719,37.11751302,37.29199219,37.38346354,37.5139974,37.59277344,37.63378906,38.17089844,38.31738281,38.45214844,38.44173177,38.56998698,38.63216146,38.7360026,38.76692708,38.93619792,38.97005208,39.06835938,39.13020833,39.16276042,39.03710938,38.72623698,38.28092448,37.81770833,37.58821615,36.99479167,36.8889974,36.88639323,36.97721354,37.09147135,37.21028646,37.32617188,37.39615885,37.46842448,37.58105469,37.69824219,38.17382813,38.37402344,38.42415365,38.515625,38.54134115,38.65071615,38.68229167,38.76529948,38.93847656,39.05175781,39.06998698,39.06217448,38.69563802,38.32877604,37.86035156,37.62760417,37.0172526,36.96809896,36.97428385,37.10091146,37.23860677,37.38151042,37.40299479,37.47851563,37.5530599,37.61393229,38.18164063,38.39778646,38.41634115,38.57942708,38.52018229,38.71451823,38.77604167,38.77832031,38.9358724,39.04394531,39.01855469,39.14160156,39.12955729,38.953125,38.51953125,38.17220052,37.76692708,37.52246094,37.01269531,36.9703776,37.05175781,37.16471354,37.25976563,37.31933594,37.39388021,37.48242188,37.6015625,37.72753906,38.19075521,38.3141276,38.36197917,38.48632813,38.53222656,38.65332031,38.75390625,38.76497396,38.93164063,38.97884115,39.02701823,39.15755208,39.03938802,38.85742188,38.53450521,38.16438802,37.79622396,37.54817708,37.02571615,37.07910156,37.08919271,37.21647135,37.35253906,37.47558594,37.48535156,37.56184896,38.08561198,38.28971354,38.36848958,38.44563802,38.48665365,38.57096354,38.72395833,38.77734375,38.90364583,39.0172526,39.07259115,39.20898438,39.18066406,39.24023438,39.2594401,39.03092448,38.54915365,38.2639974,37.93815104,37.82324219,37.67643229,37.22558594,37.24153646,37.35384115,37.40690104,37.48502604,37.56803385,38.14518229,38.30371094,38.41373698,38.45540365,38.54361979,38.60481771,38.69270833,38.79361979,38.99186198,39.10546875,39.11523438,39.18424479,39.28222656,39.32096354,39.4202474,39.41699219,39.2561849,38.99023438,38.56282552,38.18684896,37.87011719,37.7796224,37.69140625,37.27832031,37.34928385,37.47460938,38.00878906,38.13541667,38.23828125,38.21875,38.41276042,38.50130208,38.60742188,38.61816406,38.75195313,38.9000651,39.01822917,39.0797526,39.19108073,39.18880208,39.28580729,39.32486979,39.4124349,39.48307292,39.57356771,39.35579427,38.94466146,38.49739583,38.24544271,37.98828125,37.9202474,37.890625,37.92936198,38.06998698,38.21972656,38.29394531,38.37695313,38.43359375,38.5296224,38.45768229,38.60449219,38.73763021,39.03450521,39.08105469,39.1500651,39.18391927,39.33821615,39.36686198,39.45703125,39.6389974,39.70507813,39.77636719,39.85970052,39.66894531,39.26790365,38.82877604,38.49934896,38.11686198,37.80110677,37.7327474,37.765625,37.78938802,37.95442708,38.10351563,38.17610677,38.23014323,38.35970052,38.33105469,38.67740885,38.68815104,38.87174479,39.00195313,39.08138021,39.05078125,39.22167969,39.30761719,39.49186198,39.50423177,39.59505208,39.63736979,39.73470052,39.73697917,39.68001302,39.41145833,39.01432292,38.62272135,38.3264974,38.12109375,37.87272135,37.91992188,38.07161458,38.1328125,38.24023438,38.32259115,38.5452474,38.65852865,38.75553385,38.81835938,38.9140625,39.00292969,39.14746094,39.24251302,39.48730469,39.55110677,39.59440104,39.6624349,39.73079427,39.79785156,39.78190104,39.87532552,39.9313151,39.79361979,40.00748698,39.21582031,38.86263021,38.56054688,38.3343099,38.17154948,38.23046875,38.13541667,38.3046875,38.50130208,38.62369792,38.69401042,38.81998698,38.89160156,38.98990885,39.05436198,39.13476563,39.19628906,39.46582031,39.56998698,39.65429688,39.67513021,39.81152344,39.85091146,39.91634115,39.89876302,40.40266927,40.52994792,40.58040365,40.44498698,40.07714844,39.66015625,38.93326823,38.58496094,38.34309896,38.32356771,38.34244792,38.39746094,38.55566406,38.6546224,38.77669271,38.83398438,38.86621094,38.94075521,39.06966146,39.18945313,39.390625,39.43880208,39.53190104,39.63802083,39.70117188,39.69075521,39.83821615,39.89127604,39.96549479,40.45377604,40.54329427,40.59114583,40.60807292,40.32421875,39.96158854,39.53938802,38.86458333,38.62955729,38.38476563,38.33919271,38.4000651,38.50553385,38.68196615,38.74348958,38.80078125,38.87369792,38.94628906,38.97005208,39.09928385,39.3030599,39.42513021,39.49674479,39.59798177,39.6891276,39.80859375,39.80598958,39.87109375,39.96158854,40.47753906,40.58821615,40.63509115,40.734375,40.48958333,40.05045573,39.63378906,38.89973958,38.62858073,38.36165365,38.36946615,38.37304688,38.4235026,38.55566406,38.74544271,38.74869792,38.82942708,38.87076823,38.98404948,39,39.16308594,39.37076823,39.46647135,39.53580729,39.65690104,39.66764323,39.75292969,39.77539063,39.91145833,39.98990885,40.41373698,40.53938802,40.6155599,40.58333333,40.34602865,39.83821615,39.46191406,38.71484375,38.44042969,38.26009115,38.29166667,38.32779948,38.44303385,38.51432292,38.63736979,38.66308594,38.82617188,38.92740885,38.99707031,39.07519531,39.21289063,39.38151042,39.48828125,39.5843099,39.68782552,39.73404948,39.80826823,39.75716146,39.87141927,39.90592448,40.42903646,40.55240885,40.56738281,40.36328125,39.97949219,39.51204427,38.77669271,38.38867188,38.31510417,38.24934896,38.35904948,38.46484375,38.63476563,38.72688802,38.74153646,38.7874349,38.97005208,39.05859375,39.2483724,39.25292969,39.49121094,39.55403646,39.65039063,39.57584635,39.77864583,39.83626302,39.86328125,40.32845052,40.47298177,40.49479167,40.54329427,40.55338542,40.44075521,40.07063802,39.56542969,38.78092448,38.52571615,38.22591146,38.13704427,38.15657552,38.11686198,38.19075521,38.45019531,38.57324219,38.63964844,38.6858724,38.86132813,38.89973958,38.94140625,39,39.14029948,39.26171875,39.4375,39.51953125,39.5921224,39.68066406,39.69335938,39.71191406,39.78710938,39.84179688,39.85026042,39.8610026,40.08528646,39.68554688,38.88476563,38.54785156,38.24121094,38.12760417,37.97558594,38.10611979,38.17643229,38.18001302,38.48535156,38.5374349,38.6188151,38.65397135,38.82486979,38.89192708,38.96907552,39.0296224,39.16438802,39.20898438,39.41503906,39.40527344,39.5452474,39.60351563,39.60351563,39.61165365,39.76171875,39.77376302,39.72135417,39.31966146,38.98632813,38.63476563,38.23990885,38.04101563,37.86783854,37.86230469,37.91178385,37.99902344,38.11360677,38.2360026,38.26139323,38.30338542,38.57324219,38.66601563,38.74869792,38.78613281,38.82063802,38.92317708,39.05891927,39.078125,39.18684896,39.16048177,39.36132813,39.49641927,39.56966146,39.52799479,39.62239583,39.6015625,39.36751302,38.84765625,38.54720052,38.09830729,37.85742188,37.609375,37.58072917,37.62890625,37.78873698,37.85579427,37.95963542,38.01432292,38.13411458,38.17382813,38.27408854,38.28255208,38.40169271,38.65299479,38.79492188,38.76497396,38.91178385,38.95605469,39.01302083,39.06119792,39.14160156,39.1936849,39.27766927,39.44205729,39.40885417,39.17089844,38.74707031,38.24414063,38.03776042,37.65299479,37.57226563,37.56217448,37.6796875,37.78222656,37.90397135,37.96061198,38.10579427,38.11197917,38.19563802,38.21679688,38.36197917,38.38574219,38.68033854,38.73535156,38.87727865,38.89127604,39.02636719,39.09602865,39.07779948,39.12890625,39.23177083,39.41080729,39.46484375,39.31282552,38.95735677,38.54427083,38.09863281,37.88085938,37.58365885,37.37923177,37.40494792,37.1422526,37.20638021,37.7203776,37.86946615,37.91341146,38.03385417,38.13704427,38.22526042,38.26595052,38.34928385,38.3671875,38.63769531,38.73567708,38.85677083,38.88574219,38.94401042,38.97363281,39.11783854,39.16276042,39.3108724,39.29622396,39.29752604,38.92675781,38.51171875,38.06152344,37.65494792,37.48763021,37.36490885,37.38085938,37.00065104,37.13639323,37.24739583,37.71484375,37.89192708,37.98697917,38.09830729,38.10091146,38.22721354,38.28938802,38.43098958,38.4280599,38.68261719,38.81380208,38.8531901,38.91145833,38.94661458,39.00520833,39.08170573,39.16210938,39.21549479,39.09016927,38.82486979,38.3531901,37.96484375,37.57161458,37.4938151,37.52018229,37.51790365,37.13151042,37.70117188,37.84179688,37.94563802,38.04947917,38.19986979,38.22916667,38.25390625,38.34440104,38.52115885,38.71061198,38.83138021,38.87923177,38.98632813,38.9938151,39.05924479,39.09830729,39.2109375,39.3499349,39.44954427,39.41015625,39.20410156,38.78450521,38.37207031,38.01595052,37.75846354,37.6344401,37.52604167,37.58463542,37.70898438,37.8655599,38.00846354,38.09928385,38.21354167,38.21744792,38.3375651,38.41048177,38.65592448,38.73372396,38.87890625,38.98632813,38.98470052,38.8655599,38.8030599,38.85644531,39.12109375,39.29361979,39.57910156,39.71549479,39.75553385,39.54459635,39.17740885,38.74511719,38.3499349,38.10644531,38.01432292,37.79329427,37.87304688,37.99153646,38.08951823,38.11848958,38.23730469,38.31575521,38.50976563,38.60449219,38.68880208,38.8421224,38.94759115,38.96809896,39.11328125,39.16373698,39.41080729,39.42057292,39.57063802,39.64778646,39.64355469,39.67871094,39.8108724,39.76171875,39.55859375,39.16373698,38.87402344,38.5172526,38.27311198,38.1344401,38.11653646,38.06575521,38.20768229,38.31640625,38.48242188,38.61653646,38.74641927,38.7985026,38.91731771,38.95052083,39.06673177,39.23144531,39.41894531,39.51529948,39.59082031,39.6500651,39.74576823,39.77864583,39.85611979,39.93847656,40.46223958,40.55989583,40.58658854,40.44791667,40.06575521,39.56510417,38.84505208,38.56901042,38.33105469,38.22591146,38.28125,38.35449219,38.57779948,38.61621094,38.6936849,38.83007813,38.91927083,39.01953125,39.06575521,39.25260417,39.42447917,39.4625651,39.58496094,39.66113281,39.77636719,39.81119792,39.88769531,40.32259115,40.47786458,40.52473958,40.62011719,40.60514323,40.4749349,39.98958333,39.5921224,38.81803385,38.61295573,38.36621094,38.38378906,38.42480469,38.58626302,38.65429688,38.78027344,38.81608073,38.91796875,39.01074219,39.14615885,39.32161458,39.38867188,39.51920573,39.61458333,39.67740885,39.72298177,39.8203125,39.96842448,40.42122396,40.55078125,40.56998698,40.7093099,40.69270833,40.67317708,40.30208333,39.89485677,39.50227865,38.86230469,38.61197917,38.42545573,38.39095052,38.45898438,38.55338542,38.72005208,38.77604167,38.90429688,38.92220052,39.01139323,39.24446615,39.30957031,39.4280599,39.4938151,39.58886719,39.6780599,39.69498698,39.81119792,39.82519531,40.38313802,40.49348958,40.59960938,40.55924479,40.71419271,40.6328125,40.36132813,39.92643229,39.50748698,38.82128906,38.59798177,38.30436198,38.30957031,38.4202474,38.59049479,38.6875,38.76204427,38.84147135,38.91992188,38.94466146,39.07161458,39.25911458,39.38509115,39.50716146,39.61490885,39.62532552,39.73567708,39.859375,39.87369792,40.41992188,40.50227865,40.57324219,40.65755208,40.63671875,40.47135417,40.04361979,39.66796875,38.98990885,38.76497396,38.48925781,38.48665365,38.45247396,38.59114583,38.68001302,38.75455729,38.84895833,38.95540365,38.99772135,39.12369792,39.2265625,39.35481771,39.44596354,39.59505208,39.68457031,39.81575521,39.87858073,40.46582031,40.50260417,40.52246094,40.52669271,40.65885417,40.6266276,40.59114583,40.24153646,39.90494792,39.55891927,38.88997396,38.58626302,38.43164063,38.4124349,38.5016276,38.5563151,38.71875,38.79036458,38.89648438,38.87825521,39.08528646,39.10253906,39.3203125,39.36686198,39.4921875,39.58463542,39.68359375,39.72591146,39.83300781,39.85514323,40.43229167,40.50423177,40.58072917,40.62402344,40.69010417,40.51367188,40.18684896,39.86653646,39.1266276,38.86230469,38.69889323,38.49446615,38.52604167,38.63346354,38.77571615,38.79296875,38.94205729,39.01139323,39.21842448,39.23177083,39.45703125,39.46614583,39.59635417,39.63151042,39.72916667,39.78776042,39.88020833,39.86328125,40.39713542,40.49934896,40.58691406,40.61197917,40.64876302,40.49511719,40.21907552,39.7405599,39.03710938,38.81347656,38.42122396,38.35644531,38.37109375,38.43326823,38.5843099,38.67415365,38.84309896,38.86295573,39.01920573,39.12207031,39.32845052,39.37369792,39.49804688,39.52571615,39.6858724,39.73535156,39.76139323
